raman_shift_cm-1,lactose,casein,melamine,starch,tg_base,carotene
400.0,0.020875164410482594,0.00032513640053935804,0.0010988155498427086,0.012297734957172558,0.00032964997154869165,0.0001543744584230103
402.0,0.02169764048859098,0.0003266159502592294,0.001117054091798577,0.012922600964845942,0.00033119122227173736,0.00015517110208510316
404.0,0.022815479047699164,0.0003281063717406177,0.0011357862321377285,0.01359761521820647,0.0003327437971311432,0.00015597418757510304
406.0,0.024270278801284316,0.00032960777947120394,0.0011550309545959217,0.014328282132679723,0.00033430781196904766,0.0001567837869672303
408.0,0.02612063094136145,0.0003311202895464549,0.0011748082055909605,0.015120878445076256,0.0003358833841670385,0.00015759997337549806
410.0,0.028447334583298192,0.0003326440196982106,0.0011951389555113821,0.015982586152212357,0.0003374706326715244,0.00015842282097219007
412.0,0.03136117042668879,0.0003341790893238904,0.001216045264731893,0.01692165273992984,0.00033906967801960926,0.00015925240500673052
414.0,0.03501449716336248,0.00033572561951633275,0.001237550354785257,0.017947585246652596,0.0003406806423654788,0.0001600888018249551
416.0,0.039618700469756525,0.00033728373309428636,0.0012596786851654259,0.01907138650942268,0.0003423036495073116,0.00016093208888879335
418.0,0.04547077289076081,0.00033885355463356717,0.0012824560362871599,0.02030584430826081,0.0003439388249147282,0.0001617823447963728
420.0,0.05299433336585128,0.0003404352104989008,0.0013059095991839016,0.021665887254635696,0.0003455862957567888,0.00016263964930255534
422.0,0.06280360270182882,0.00034202882887646657,0.0013300680725891385,0.023169025436903926,0.00034724619093055387,0.00016350408333991613
424.0,0.07580346933004184,0.0003436345398071617,0.0013549617681177493,0.024835899425156974,0.0003489186410902204,0.0001643757290401771
426.0,0.09334355402063098,0.00034525247522060527,0.001380622724344091,0.0266909687941683,0.00035060377867684675,0.00016525466975610565
428.0,0.11744092415573,0.0003468827689699002,0.0014070848306639997,0.02876338162087858,0.0003523017379486816,0.000166140990083891
430.0,0.15103956623283724,0.0003485255568671736,0.0014343839619299706,0.031088080564488974,0.0003540126550121089,0.00016703477588600945
432.0,0.19805738711409263,0.0003501809767199164,0.0014625581249641758,0.033707220753182374,0.00035573666785322655,0.00016793611431459253
434.0,0.262217879286491,0.0003518491683681432,0.0014916476181846933,0.036672002132372906,0.00035747391637007094,0.00016884509383530892
436.0,0.341927230167473,0.00035353027372239415,0.0015216952057285345,0.04004505763315655,0.0003592245424055038,0.00016976180425177522
438.0,0.4186325884590447,0.00035522443680260056,0.001552746307623505,0.04390359361969335,0.00036098868978078026,0.0001706863367305077
440.0,0.45250055464464983,0.0003569318037778397,0.0015848492077525983,0.04834355820656236,0.0003627665043298078,0.00017161878382643028
442.0,0.4184506504113654,0.00035865252300699984,0.0016180552815732118,0.053485227626319194,0.0003645581339341206,0.00017255923950895228
444.0,0.3415621207683173,0.00036038674508038224,0.0016524192458030906,0.059480767972987736,0.000366363728558581,0.0001735077991886308
446.0,0.2616671118983845,0.00036213462286226433,0.001687999432570618,0.0665245747990089,0.00036818344028782796,0.00017446455974443411
448.0,0.1973171811029242,0.00036389631153445134,0.0017248580908546137,0.07486755346467296,0.0003700174233634909,0.0001754296195516206
450.0,0.15010478443637373,0.00036567196864084194,0.0017630617184151323,0.08483703138313739,0.0003718658342221872,0.0001764030785102494
452.0,0.11630498655577022,0.00036746175413303767,0.0018026814278499367,0.09686475739803486,0.0003737288315343229,0.00017738503807434113
454.0,0.0919983249030662,0.000369265830417023,0.0018437933509110377,0.11152651300555771,0.000375606576243716,0.00017837560128170388
456.0,0.07423911429136552,0.00037108436240094686,0.0018864790857933895,0.12959824538998246,0.0003774992316080636,0.00017937487278444362
458.0,0.06100841074448287,0.0003729175175440358,0.0019308261927770917,0.15213508431225112,0.0003794069632402727,0.00018038295888017644
460.0,0.05095449795089202,0.0003747654659066711,0.001976928744381646,0.18058001781438468,0.00038132993915067733,0.00018139996754396232
462.0,0.04317012409665708,0.0003766283802016607,0.0020248879370953635,0.21690472750863987,0.0003832683297901636,0.00018242600846097911
464.0,0.0370383782236678,0.00037850643584674197,0.002074812772798368,0.2637654336583496,0.00038522230809422565,0.0001834611930599572
466.0,0.03213255270826692,0.000380399811018348,0.0021268208192319845,0.32459287554230914,0.000387192049527976,0.00018450563454739535
468.0,0.028152079549134092,0.00038230868670667437,0.00218103906031466,0.40335969612938993,0.00038917773213213404,0.0001855594479425789
470.0,0.024881401355755565,0.0003842332467720834,0.002237604848806174,0.5033603288912551,0.00039117953657001863,0.00018662275011342298
472.0,0.02216325441694009,0.0003861736780028833,0.0022966669758278844,0.6236831285806834,0.0003931976461755687,0.00018769565981316213
474.0,0.01988104665506752,0.0003881301701745231,0.0023583868741181633,0.7521571497975398,0.00039523224700242033,0.00018877829771791083
476.0,0.01794704076013249,0.00039010291611024325,0.0024229399747137475,0.8582624256188326,0.000397283527874065,0.0001898707864651188
478.0,0.016294297120652827,0.0003920921117432236,0.002490517240091077,0.9006200327472786,0.00039935168043511867,0.00019097325069294531
480.0,0.014871090593436144,0.0003940979561802735,0.002561326900789822,0.8582718157399604,0.00040143689920373,0.0001920858170805791
482.0,0.013636981229332126,0.00039612065176710895,0.002635596427313209,0.7521759320945882,0.000403539381625157,0.00019320861438952943
484.0,0.012560008255405906,0.000398160404155262,0.0027135747748296742,0.6237113071645913,0.00040565932812654265,0.00019434177350591674
486.0,0.01161465847522201,0.0004002174223706717,0.0027955349451036517,0.503397909931819,0.00040779694217292067,0.00019548542748378962
488.0,0.010780376292477734,0.0004022919188840071,0.002881776918429676,0.4034066878593339,0.0004099524303244844,0.00019663971158949908
490.0,0.01004045771369171,0.00040438410968277044,0.0029726310184726864,0.324649288262721,0.0004121260022951512,0.00019780476334715848
492.0,0.009381220070676495,0.00040649421434523874,0.0030684617852561025,0.26383127974548903,0.00041431787101245724,0.00019898072258522096
494.0,0.00879137212115261,0.0004086224561162937,0.003169672446630069,0.21698002142212844,0.000416528252678818,0.0002001677314842068
496.0,0.008261531428805901,0.00041076906198520057,0.0032767100970857816,0.1806647761067889,0.00041875736683419016,0.00020136593462561302
498.0,0.0077838511513107335,0.0004129342627653929,0.003390071715641343,0.15222932564007133,0.0004210054364201727,0.00020257547904204014
500.0,0.0073517289193728574,0.0004151182931763245,0.0035103111828469376,0.12970199052606193,0.00042327268784558706,0.00020379651426857072
502.0,0.006959577892271292,0.0004173213919274523,0.003638047492211642,0.11163978485292969,0.0004255593510535737,0.00020502919239543733
504.0,0.006602645325392667,0.0004195438018044143,0.003773974395452209,0.09698758100522586,0.000427865659590249,0.00020627366812201651
506.0,0.006276867748335549,0.00042178576975747097,0.003918871776405033,0.08496943396094758,0.0004301918506749614,0.00020753009881218853
508.0,0.005978754576638284,0.0004240475469922796,0.0040736191185151436,0.07500956440445697,0.00043253816527219464,0.00020879864455110309
510.0,0.0057052939715442254,0.00042632938906307465,0.004239211519875433,0.06667622569248191,0.00043490484816515856,0.00021007946820339221
512.0,0.005453876230909534,0.0004286315559683276,0.004416778823639974,0.05964209263358445,0.0004372921480311176,0.00021137273547287488
514.0,0.005222231086865624,0.0004309543122489659,0.004607608578067924,0.05365626211213506,0.00043970031751850304,0.00021267861496379581
516.0,0.00500837610514868,0.0004332979270892302,0.004813173730000973,0.048524340844909225,0.0004421296133258579,0.0002139972782436465
518.0,0.004810574000181103,0.0004356626744202536,0.0050351662025832295,0.04409416503330376,0.000444580296282667,0.00021532889990761558
520.0,0.0046272971513634156,0.0004380488330264494,0.00527553783219506,0.04024546076807375,0.00044705263143212374,0.00021667365764471716
522.0,0.0044571979674042595,0.0004404566866547963,0.005536550568162593,0.036882282287565814,0.0004495468881158874,0.00021803173230564937
524.0,0.004299084024400721,0.0004428865241271154,0.005820838409912594,0.033927425611927846,0.0004520633400608888,0.00021940330797243552
526.0,0.004151897119978232,0.00044533863945543303,0.006131484323564334,0.031318260227566244,0.00045460226546823883,0.0002207885720299022
528.0,0.0040146955550410725,0.00044781333196053114,0.0064721164199211785,0.02900358864162352,0.0004571639471043035,0.00022218771523905154
530.0,0.003886639087691437,0.0004503109063937877,0.006847029098372906,0.026941258215438604,0.0004597486723940033,0.00022360093181238638
532.0,0.003766976108983821,0.0004528316730624147,0.0072613368261618925,0.025096328818262053,0.0004623567335164035,0.00022502841949124862
534.0,0.0036550326736844237,0.0004553759479582049,0.007721170964825519,0.023439654942556756,0.0004649884275026586,0.00022647037962523356
536.0,0.003550203085880079,0.0004579440528899034,0.008233933925226835,0.02194677962598732,0.0004676440563363801,0.00022792701725374642
538.0,0.0034519417927782394,0.00046053631561932375,0.008808630456831676,0.02059706495608165,0.0004703239270564977,0.0002293985411897675
540.0,0.0033597563831635727,0.0004631530700013322,0.009456303861752509,0.01937300354949862,0.00047302835186268516,0.00023088516410589625
542.0,0.0032732015218945414,0.00046579465612783073,0.010190616618980934,0.01825966954946763,0.0004757576482234265,0.00023238710262274697
544.0,0.003191873680218279,0.00046846142047587204,0.011028632275579335,0.0172442779827113,0.00047851213898680004,0.00023390457739977123
546.0,0.003115406544867966,0.0004711537160600456,0.01199188165406206,0.016315828873418873,0.0004812921524940585,0.00023543781322858483
548.0,0.003043467007914775,0.00047387190258928115,0.013107836552943078,0.015464818101413182,0.0004840980226960894,0.00023698703912888
550.0,0.002975751654988624,0.0004766163466282168,0.014411976645363946,0.014683001158731494,0.00048693008927284015,0.00023855248844700696
552.0,0.00291198368240207,0.0004793874217632922,0.015950734478280045,0.013963199088780328,0.0004897886977557964,0.000240134398957311
554.0,0.002851910184421156,0.0004821855087737241,0.017785763850363685,0.013299138260126662,0.000492674199653604,0.00024173301296631666
556.0,0.0027952997608346685,0.0004850109958075379,0.0200002412880442,0.01268531743079337,0.0004955869525809298,0.0002433485774198504
558.0,0.0027419404024066896,0.00048786427856282663,0.02270835523568157,0.012116896942146023,0.0004985273203906586,0.00024498134401320103
560.0,0.002691637618020328,0.0004907457604744227,0.026069901049961465,0.011589605948917114,0.0005014956733095261,0.0002466315693044171
562.0,0.0026442127725463866,0.0004936558529061688,0.030313233903335783,0.011099664420724985,0.000504492388077294,0.0002482995148308462
564.0,0.002599501608872179,0.0004965949753489897,0.03577219364467509,0.010643717297734421,0.0005075178480895736,0.00024998544722902523
566.0,0.0025573529312437325,0.0004995635556249645,0.042946805121046074,0.010218778691469123,0.00051057244354441,0.0002516896383580336
568.0,0.002517627430223907,0.0005025620300976184,0.05260479784304256,0.009822184423195905,0.0005136565715927439,0.00025341236542642735
570.0,0.0024801966322439816,0.0005055908438886524,0.06595225732304819,0.009451551510897844,0.0005167706364928677,0.00025515391112287424
572.0,0.002444941959004191,0.0005086504511013437,0.08491272992020892,0.009104743469981557,0.0005199150497690035,0.0002569145637506187
574.0,0.0024117538839236547,0.0005117413150508577,0.11252929619815531,0.008779840496535934,0.0005230902303741295,0.00025869461736590554
576.0,0.0023805311745047453,0.000514863908501722,0.15326203824501503,0.008475113765943574,0.0005262966048571855,0.00026049437192049977
578.0,0.0023511802109052074,0.0005180187139127237,0.21178547228845163,0.008189003212258919,0.0005295346075348002,0.0002623141334084457
580.0,0.0023236143722395425,0.0005212062236895022,0.28544200853250346,0.007920098261465955,0.0005328046806676783,0.00026415421401721026
582.0,0.0022977534831899117,0.0005244269404451213,0.34621009401862934,0.007667121079551951,0.0005361072746417973,0.00026601493228336673
584.0,0.002273523314421448,0.0005276813772689158,0.34645245624130333,0.007428911968232268,0.0005394428481545674,0.0002678966132529765
586.0,0.0022508551310886898,0.0005309700580039196,0.2861704124234044,0.0072044166002461765,0.0005428118684061115,0.0002697995886468357
588.0,0.002229685284406968,0.0005342935175332,0.21300388740533224,0.006992674834876391,0.0005462148112958299,0.0002717241970307603
590.0,0.0022099548418599724,0.0005376523020754276,0.15497714059924167,0.006792810894681746,0.0005496521616244242,0.0002736707839910874
592.0,0.0021916092521352378,0.0005410469694900364,0.11475055997547207,0.006604024717933458,0.0005531244133015495,0.00027563970231558226
594.0,0.002174598041333789,0.0005444780895923357,0.08765255915268533,0.006425584329160899,0.0005566320695592868,0.0002776313121799446
596.0,0.002158874537397788,0.0005479462444789537,0.0692261609347212,0.006256819093548471,0.0005601756431716185,0.0002796459813401178
598.0,0.002144395620048627,0.0005514520288640123,0.056431612708358746,0.006097113740491947,0.0005637556566801087,0.00028168408533061154
600.0,0.00213112149383414,0.0005549960504264457,0.04734897319052452,0.005945903058078791,0.0005673726426259916,0.00028374600766906013
602.0,0.0021190154821531973,0.0005585789301688938,0.04077610087426109,0.005802667174136419,0.0005710271437888796,0.00028583214006724407
604.0,0.0021080438403637543,0.0005622013027886269,0.03594962075810823,0.00566692735123163,0.0005747197134323135,0.0002879428826488151
606.0,0.0020981755862906812,0.0005658638170609684,0.03237435684840154,0.005538242232960328,0.0005784509155563794,0.0002900786441739743
608.0,0.002089382346636009,0.0005695671362357141,0.029721911699266197,0.005416204487332251,0.0005822213251576367,0.0002922398422713634
610.0,0.002081638217959655,0.0005733119384470579,0.027770084548446285,0.005300437800272251,0.0005860315284965964,0.0002944269036774402
612.0,0.0020749196410460246,0.0005770989171375684,0.026366089089652857,0.005190594178427039,0.0005898821233730104,0.0002966402644836214
614.0,0.002069205287603348,0.0005809287814967756,0.0254037736664477,0.005086351525749705,0.0005937737194092373,0.00029888037039148854
616.0,0.0020644759583603412,0.0005848022569149593,0.024809237940440796,0.004987411462870739,0.0005977069383419592,0.0003011476769763651
618.0,0.002060714491730442,0.0005887200854527554,0.024531604450264036,0.004893497362168604,0.0006016824143225391,0.00030344264995958573
620.0,0.0020579056823090813,0.0005926830263272234,0.024537040749812715,0.004804352574820192,0.0006057007942263154,0.00030576576548979584
622.0,0.002056036208555531,0.0005966918564150538,0.02480489570791919,0.004719738829022384,0.000609762737971145,0.0003081175104336294
624.0,0.0020550945690889963,0.0006007473707736175,0.02532526449757561,0.004639434781097155,0.0006138689188455183,0.00031049838267613485
626.0,0.0020550710270998873,0.0006048503831806027,0.026097569601993404,0.004563234703381261,0.0006180200238465773,0.0003129088914313293
628.0,0.0020559575624424977,0.0006090017266930079,0.02712991720306854,0.0044909472947050055,0.0006222167540283932,0.00031534955756328355
630.0,0.0020577478310354644,0.0006132022542263113,0.02843910396142222,0.004422394600923505,0.0006264598248608578,0.00031782091391815596
632.0,0.00206043713125221,0.000617452839154658,0.030051235176048286,0.004357411034412377,0.0006307499665995732,0.000320323505667611
634.0,0.002064022377035604,0.0006217543759329667,0.03200298927414702,0.004295842482707146,0.000635087924667129,0.0003228578906640844
636.0,0.002068502077520062,0.0006261077807418833,0.034343639199524705,0.004237545497576543,0.0006394744600461762,0.0003254246398083688
638.0,0.0020738763229907423,0.0006305139921565678,0.03713803178610831,0.004182386556795535,0.0006439103496847247,0.00032802433743002576
640.0,0.0020801467770538784,0.0006349739718403392,0.040470847638933875,0.00413024139174244,0.0006483963869141067,0.0003306575816811451
642.0,0.0020873166749351634,0.0006394887052642618,0.04445263902707035,0.004080994374701335,0.0006529333818800679,0.00033332498494400366
644.0,0.0020953908278648643,0.0006440592024538032,0.049228406687637664,0.004034537960419618,0.0006575221619874671,0.0003360271742531973
646.0,0.002104375633549491,0.0006486864987637559,0.05498988444128524,0.00399077217706228,0.0006621635723590844,0.0003387647917328482
648.0,0.0021142790927707674,0.0006533716556826708,0.061993345886382174,0.003949604162229387,0.0006668584763090615,0.00034153849504952146
650.0,0.0021251108321937696,0.0006581157616681143,0.07058578512091367,0.003910947740169735,0.0006716077558315158,0.0003443489578815095
652.0,0.0021368821335078754,0.0006629199330141315,0.08124401246800791,0.003874723036739251,0.0006764123121048983,0.00034719687040518155
654.0,0.0021496059690670048,0.0006677853147523607,0.09463397237562762,0.0038408561290237796,0.0006812730660126822,0.00035008293979912355
656.0,0.002163297044239955,0.0006727130815883261,0.11170209694912954,0.003809278726878165,0.0006861909586810038,0.0003530078907668326
658.0,0.0021779718467279554,0.000677704438874512,0.13381763230544316,0.003779927883931694,0.000691166952033893,0.0003559724660787684
660.0,0.002193648703155365,0.0006827606236219019,0.16299513421634734,0.003752745735878632,0.0006962020293667711,0.00035897742713459957
662.0,0.0022103478432911683,0.0006878829055517598,0.2022369369343248,0.003727679264115108,0.0007012971959389092,0.00036202355454653115
664.0,0.002228091472314283,0.0006930725881895196,0.2560281573099862,0.0037046800830037303,0.0007064534795855821,0.0003651116487446371
666.0,0.0022469038515951895,0.0006983310100027505,0.33091336858671166,0.003683704249247642,0.0007116719313506805,0.0003682425306051751
668.0,0.002266811388530729,0.0007036595455852693,0.43560110367160126,0.003664712092039089,0.0007169536261405747,0.00037141704210290387
670.0,0.0022878427360389204,0.0007090596068895819,0.5783676019945085,0.0036476680628162346,0.0007222996634000665,0.0003746360469884818
672.0,0.0023100289023970126,0.0007145326445099563,0.7556726463660064,0.003632540603617936,0.000727711167811294,0.00037790043149207734
674.0,0.002333403372189811,0.0007200801490185476,0.9262890757757721,0.003619302033171617,0.0007331892900165011,0.0003812111050543794
676.0,0.0023580022392275064,0.0007257036523571404,1.0016994577446656,0.0036079284499857117,0.0007387352073656175,0.00038456900108626386
678.0,0.00238386435239407,0.000731404729287197,0.9261704873563401,0.003598399651847246,0.0007443501246896439,0.0003879750777584299
680.0,0.002411031475500064,0.0007371849989010703,0.7554347887703141,0.0035906990712483242,0.000750035275100878,0.00039143031882239693
682.0,0.002439548462338957,0.0007430461261973761,0.5780091043521122,0.00358481372638408,0.0007557919208210685,0.0003949357344643215
684.0,0.0024694634482854876,0.000748989823723709,0.4351198860461474,0.0035807341874803935,0.0007616213540386299,0.0003984923621931747
686.0,0.0025008280599302674,0.0007550178532900493,0.3303066129409357,0.0035784545583236378,0.000767524897796105,0.00040210126776490403
688.0,0.002533697644418868,0.0007611320277564091,0.25529226763218776,0.003577972472978284,0.0007735039069091231,0.0004057635461442864
690.0,0.0025681315203587448,0.0007673342128984613,0.2013674874701938,0.0035792891077926206,0.0007795597689181483,0.0004094803225062828
692.0,0.0026041932523764443,0.0007736263293551154,0.16198680440447139,0.0035824092089094335,0.0007856939050743856,0.0004132527532787917
694.0,0.0026419509516540803,0.0007800103546622322,0.13266412660766042,0.0035873411356187714,0.0007919077713612697,0.00041708202722881506
696.0,0.002681477605051955,0.0007864883253769105,0.11039604727769374,0.0035940969200151697,0.0007982028595530307,0.00042096936659415454
698.0,0.002722851435738078,0.0007930623392970475,0.09316682022198715,0.003602692343553598,0.000804580698311907,0.0004249160282628797
700.0,0.0027661562986004123,0.0007997345577811401,0.07960586709935694,0.003613147031238639,0.0008110428543256423,0.00042892330500293567
702.0,0.0028114821141201557,0.0008065072081736039,0.0687652532866821,0.003625484564331692,0.000817590933486994,0.0004329925267443876
704.0,0.002858925344841367,0.0008133825863411884,0.059977327309424275,0.0036397326126235774,0.0008242265821170529,0.0004371250619169526
706.0,0.002908589519092048,0.0008203630593264173,0.052763325880054425,0.0036559230874968454,0.0008309514882342744,0.0004413223188456111
708.0,0.002960585807204216,0.0008274510681243307,0.046774005441272415,0.003674092317196141,0.0008377673828712033,0.000445585747207262
710.0,0.0030150336561567564,0.0008346491305891977,0.04175048427222956,0.0036942812459387917,0.0008446760414409808,0.0004499168395515517
712.0,0.003072061489338432,0.0008419598444782768,0.037497984738947075,0.0037165356587348843,0.0008516792851558241,0.0004543171328891977
714.0,0.0031318074790148433,0.0008493858906401373,0.03386793042670651,0.0037409064340500594,0.0008587789824997753,0.00045878821035132144
716.0,0.003194420400100962,0.0008569300363555285,0.030745540498374028,0.0037674498267394256,0.0008659770507581406,0.0004633317029235153
718.0,0.00326006057501174,0.0008645951388392858,0.028041099341129912,0.003796227784012456,0.0008732754576061511,0.000467949291258595
720.0,0.0033289009207130875,0.0008723841489122912,0.025683722190253357,0.00382730829756199,0.0008806762227595188,0.0004726427075722282
722.0,0.003401128110654675,0.0008803001148531021,0.023616841551856827,0.0038607657954124095,0.0008881814196896916,0.00047741373762588354
724.0,0.0034769438660708827,0.0008883461864394542,0.021794897118570213,0.00389668157752034,0.0008957931774067519,0.0004822642228018236
726.0,0.003556566393230034,0.0008965256191905271,0.02018087887112802,0.003935144299704823,0.0009035136823130698,0.00048719606227515385
728.0,0.0036402319856465087,0.0009048417788215584,0.018744482801525263,0.003976250511103572,0.0009113451801309679,0.000492211215288255
730.0,0.003728196813107336,0.0009132981459231624,0.017460711842167964,0.004020105251059899,0.0009192899779078404,0.000497311703533263
732.0,0.003820738922678792,0.0009218983208785186,0.016308804012898317,0.0040668227121559404,0.0009273504461023408,0.0005024996136486192
734.0,0.00391816048073895,0.000930646029032483,0.015271403634915597,0.0041165269770390665,0.0009355290207554514,0.0005077770998360999
736.0,0.00402079028963729,0.0009395451261276146,0.01433391491415599,0.004169352837760202,0.0009438282057504504,0.0005131463866051474
738.0,0.004128986617943475,0.0009485996040231249,0.013483993645688652,0.004225446707579474,0.0009522505751660051,0.0005186097716517678
740.0,0.004243140389573644,0.0009578135967138554,0.01271114445665688,0.0042849676366246495,0.0009607987757268553,0.0005241696288797392
742.0,0.004363678784568268,0.0009671913866675624,0.012006399367071348,0.004348088444445674,0.0009694755293567898,0.0005298284115723829
744.0,0.004491069313178635,0.0009767374115000535,0.011362059501605916,0.0044149969844349286,0.0009782836358388806,0.000535588655723702
746.0,0.00462582443549077,0.0009864562710090912,0.010771486210314625,0.004485897557326637,0.0009872259755882072,0.0005414529835382803
748.0,0.004768506811435597,0.0009963527345894531,0.010228931119531458,0.004561012493609021,0.0009963055125426059,0.0005474241071099725
750.0,0.004919735281146336,0.0010064317490531187,0.009729397061644265,0.0046405839277500836,0.001005525297177276,0.0005535048322901014
752.0,0.0050801916937793,0.0010166984468802844,0.009268523652784445,0.00472487579073798,0.0010148884696494136,0.0005596980627566113
754.0,0.005250628724798801,0.0010271581549287472,0.008842492663134593,0.0048141760516734735,0.0010243982630793868,0.0005660068042964266
756.0,0.005431878848198366,0.0010378164036312153,0.00844794937180976,0.004908799244151231,0.00103405800697534,0.0005724341693141159
758.0,0.005624864662266328,0.0010486789367122648,0.00808193690109649,0.005009089319082277,0.0010438711308085173,0.0005789833815808891
760.0,0.005830610806662084,0.0010597517214590091,0.007741841144389571,0.005115422872630139,0.0010538411677469977,0.0005856577812389553
762.0,0.006050257756470244,0.001071040959582092,0.007425344383327844,0.00522821280628898,0.0010639717585560113,0.0005924608300773391
764.0,0.006285077837732068,0.0010825530987063692,0.007130386065578257,0.0053479124861078794,0.0010742666556734577,0.0005993961170964277
766.0,0.006536493881515231,0.001094294844533628,0.006855129510160338,0.0054750204800132415,0.0010847297274697663,0.0006064673643797773
768.0,0.006806101023468912,0.0011062731737229363,0.0065979335406663436,0.005610085966537585,0.0010953649627017945,0.0006136784332930688
770.0,0.0070956922676638345,0.0011184953475377381,0.00635732823219547,0.005753714925571432,0.001106176475171013,0.000621033331031587
772.0,0.007407288573363717,0.0011309689263126277,0.006131994105900417,0.005906577242695941,0.0011171685085968677,0.0006285362175391943
774.0,0.007743174399084502,0.0011437017847968959,0.005920744223850816,0.0060694148840810865,0.0011283454417168601,0.0006361914128235099
776.0,0.008105939860203764,0.0011567021284364773,0.005722508732683102,0.006243051329924627,0.0011397117936255855,0.0006440034046938881
778.0,0.008498530938135226,0.00116997851066084,0.005536321482043831,0.006428402492325033,0.0011512722293657365,0.0006519768569508389
780.0,0.008924309538828602,0.0011835398512467388,0.005361308406883569,0.00662648939006239,0.0011630315657848707,0.000660116618057763
782.0,0.009387125660374007,0.001197395455836611,0.005196677414139932,0.0068384529102241695,0.0011749947776726086,0.0006684277303282838
784.0,0.009891404526494658,0.0012115550366957784,0.005041709556551661,0.007065571057807839,0.0011871670041938528,0.0006769154396651091
786.0,0.010442252319084949,0.001226028734799604,0.004895751311075915,0.007309279183040191,0.0011995535556345925,0.0006855852058892119
788.0,0.011045585159360658,0.0012408271433493904,0.00475820780806731,0.007571193786950681,0.0012121599204779328,0.0006944427137012567
790.0,0.01170828732720249,0.0012559613328241412,0.004628536881156758,0.007853140644957186,0.0012249917728291006,0.0007034938843206109
792.0,0.012438406487937446,0.00127144287768446,0.004506243827548291,0.008157188164048968,0.0012380549802094086,0.0007127448878510049
794.0,0.013245396077613233,0.0012872838848548744,0.004390876784961052,0.008485687112384127,0.0012513556117404484,0.0007222021564259819
796.0,0.014140418211324174,0.0013034970241218497,0.004282022645267498,0.00884131814510323,0.0012648999467411853,0.0007318723981917317
798.0,0.015136724851560443,0.0013200955605968318,0.00417930343649138,0.009227148916071052,0.00127869448376213,0.0007417626121897795
800.0,0.01625014097574719,0.001337093389406883,0.004082373114614367,0.009646703037891167,0.0012927459500823634,0.000751880104207341
802.0,0.017499681798366425,0.0013545050727900665,0.0039909147149111675,0.010104043766836355,0.0013070613116969363,0.0007622325036690148
804.0,0.01890834773771067,0.0013723458797887391,0.0039046378195453785,0.010603876092965378,0.0013216477838240096,0.0007728277816499097
806.0,0.02050415726007025,0.0013906318287516004,0.0038232763041213353,0.011151671974150516,0.0013365128419631223,0.0007836742700973646
808.0,0.022321501217746054,0.0014093797328748013,0.0037465863309736488,0.011753824856693268,0.001351664233538112,0.0007947806823561803
810.0,0.02440293620366742,0.0014286072490339195,0.0036743445613279095,0.012417841501171244,0.001367109990160555,0.0008061561351008305
812.0,0.026801583950623237,0.00144833293018235,0.0036063465622012997,0.013152581658061635,0.0013828584405520792,0.000817810171787516
814.0,0.02958437690717241,0.001468576281617938,0.0035424053871283318,0.013968559565809512,0.001398918224166608,0.0008297527877493165
816.0,0.032836499297711624,0.0014893578214487356,0.0034823503125764373,0.0148783259350411,0.0014152983055565145,0.0008419944570691299
818.0,0.03666753779514098,0.0015106991456210063,0.0034260257143269995,0.01589695555656704,0.0014320079895297916,0.0008545461613777452
820.0,0.04122010720744638,0.0015326229979083367,0.003373290070197115,0.01704267468359271,0.001449056937148759,0.000867419420738385
822.0,0.04668210259284412,0.0015551533453004305,0.0033240150773143837,0.01833767499788654,0.0014664551826244893,0.0008806263267945333
824.0,0.053304324379271496,0.0015783154592742868,0.0032780848737724855,0.01980917891112312,0.0014842131511650996,0.0008941795783750371
826.0,0.061426137033917125,0.0016021360034796212,0.0032353953559243354,0.021490846607153107,0.0015023416778403788,0.0009080925197695011
828.0,0.07151319885180403,0.0016266431284251374,0.0031958535838421884,0.023424652229803656,0.0015208520275298372,0.0009223791819081544
830.0,0.08421326968092607,0.0016518665738133518,0.0031593772686163753,0.025663410400923292,0.001539755916026348,0.0009370543267038788
832.0,0.10043854725327617,0.0016778377792399368,0.0031258943361990033,0.028274212937391015,0.0015590655323729904,0.0009521334948402743
834.0,0.12148469437386435,0.0017045900040498722,0.0030953425634460277,0.03134315123603513,0.0015787935625166474,0.0009676330573188119
836.0,0.14919262488693952,0.0017321584572281897,0.0030676692828885705,0.03498186963732222,0.0015989532143683713,0.0009835702711106968
838.0,0.1861317389462174,0.0017605804382989562,0.0030428311535884676,0.03933674278656798,0.0016195582443675044,0.000999963339295438
840.0,0.2356791584789071,0.0017898954903137732,0.0030207939962189445,0.04460182368565253,0.0016406229856541768,0.0010168314761088322
842.0,0.30154971695494565,0.0018201455661320954,0.0030015326912732686,0.0510371893499441,0.0016621623779630905,0.0010341949773686626
844.0,0.38556706635051075,0.0018513752093319152,0.0029850311400561103,0.05899488718183761,0.0016841919993605004,0.0010520752967975453
846.0,0.4815848779214266,0.0018836317512430083,0.002971282288867919,0.06895513992949161,0.001706728099956163,0.0010704951288198145
848.0,0.5663090472820761,0.0019169655257683799,0.0029602882175658817,0.0815750034873919,0.00172978763773272,0.0010894784984739215
850.0,0.601621941202994,0.0019514301038557405,0.0029520602944907515,0.09774783404757512,0.0017533883166467102,0.001109050859154604
852.0,0.5663471035204622,0.0019870825497029848,0.0029466194006026675,0.11865781878515345,0.0017775486271681675,0.0011292391989811427
854.0,0.48166101987126253,0.0020239837010336726,0.00294399622658835,0.14577190586887098,0.001802287889439744,0.0011500721566807533
856.0,0.38568135301740475,0.0020621984760648125,0.0029442316477058857,0.18060439203336634,0.0018276262992515892,0.0011715801479810337
858.0,0.30170223699623944,0.0021017962101151067,0.002947377182243663,0.22387287924527627,0.001853584977044942,0.0011937955036242522
860.0,0.23587003038303175,0.0021428510251732254,0.002953495540711822,0.273454101218774,0.0018801860201757446,0.00121675262025115
862.0,0.1863611112729042,0.0021854422361698286,0.0029626612742871703,0.32122169659542094,0.0019074525586896996,0.0012404881255552503
864.0,0.14946067656921408,0.0022296547981822687,0.0029749615326300277,0.3521904764520902,0.0019354088148822758,0.0012650410592832913
866.0,0.12179163508299162,0.0022755797993569225,0.002990496943024614,0.35244593666828944,0.0019640801669414394,0.0012904530718565277
868.0,0.10078461782807537,0.002323315004972579,0.0030093826249115965,0.32199005588565566,0.0019934932169975504,0.0013167686426152315
870.0,0.08459874262313344,0.002372965458802776,0.0030317493563403993,0.27474133558413794,0.0020236758639342557,0.0013440353199492073
872.0,0.07193837888942999,0.0024246441487815744,0.003057744911739602,0.22568908378155933,0.002054657381346558,0.0013723039858758936
874.0,0.06189136175482748,0.0024784727449551425,0.0030875355937709627,0.18296398893541618,0.002086468501067926,0.0014016291479709072
876.0,0.053809964937517975,0.002534582418833347,0.003121307985999166,0.14869394669527208,0.0021191415027277008,0.0014320692619511012
878.0,0.047228564490583165,0.0025931147545684118,0.0031592709578011366,0.12216639284532686,0.002152710309843593,0.0014636870886661605
880.0,0.04180783115561669,0.0026542227639139893,0.0032016579585098593,0.10187259938972507,0.0021872105930022035,0.0014965500897818314
882.0,0.03729700065642329,0.0027180720186963823,0.003248729644428156,0.08635186265136129,0.0022226798807338183,0.0015307308670485032
884.0,0.033508215115670946,0.002784841916606731,0.0033007768902924895,0.07442708980888274,0.0022591576787468143,0.001566307650757849
886.0,0.030298898025886534,0.0028547270985548384,0.003358124246307366,0.06521308158783362,0.0022966855982526056,0.0016033648438152147
888.0,0.027559502229534506,0.002927939038679641,0.003421133913370484,0.058062264972383815,0.0023353074941848875,0.0016419936288177665
890.0,0.025204884332861256,0.003004707831470252,0.0034902103230226127,0.05250555620314378,0.0023750696141979395,0.0016822926466535135
892.0,0.023168154139363527,0.003085284204414822,0.0035658054255559993,0.0482041214386128,0.002416020759418995,0.0017243687564550778
894.0,0.0213962337021068,0.0031699417892837884,0.0036484248103233227,0.04491370785715234,0.0024582124580301633,0.0017683378882917802
896.0,0.019846611867044017,0.0032589796907183735,0.0037386348075219202,0.04245939116434819,0.002501699152867681,0.0018143260018094536
898.0,0.018484945000498656,0.0033527253974170957,0.003837070751753069,0.040718137493013375,0.0025465384043516204,0.0018624701661845004
900.0,0.017283263769445053,0.0034515380891179115,0.003944446625969393,0.03960705502691979,0.0025927911101995085,0.0019129197793143512
902.0,0.0162186189473399,0.003555812402039548,0.004061566351950762,0.0390758198649976,0.0026405217435345025,0.001965837947203136
904.0,0.015272048723557944,0.003665982726818523,0.0041893370526830025,0.03910228958845844,0.00268979861117506,0.002021403048120353
906.0,0.014427783900951103,0.003782528126688567,0.004328784686198532,0.039690744441128675,0.0027406941340911723,0.0020798105104369194
908.0,0.013672630849727621,0.003905977980235595,0.004481072543819846,0.040872553613475186,0.002793285152234946,0.002141274838232117
910.0,0.012995488528698036,0.004036918473200807,0.004647523223917944,0.04270940147100944,0.002847653256204365,0.002206031925009403
912.0,0.012386967519699808,0.004176000088351136,0.00482964484266769,0.0452995815043722,0.002903885148482119,0.002274341703399719
914.0,0.011839087337360069,0.004323946272472849,0.00502916243573442,0.04878834123161611,0.0029620730373112756,0.002346491187869369
916.0,0.01134503427868651,0.004481563496449779,0.005248055752632606,0.053383924372488345,0.003022315066631445,0.0024227979785659574
918.0,0.010898966449541705,0.00464975296992747,0.0054886049666093215,0.05938191162547509,0.0030847157859092396,0.0025036143080107527
920.0,0.010495855818729603,0.004829524328509278,0.005753446241783026,0.0672017998623437,0.0031493866641623463,0.002589331728989927
922.0,0.010131359532424635,0.005022011681716846,0.006045639649504306,0.07744140672852727,0.003216446653005767,0.0026803865624900054
924.0,0.009801714501551465,0.005228492497894613,0.006368752654012053,0.09095584135018522,0.003286022804151577,0.00277726624986499
926.0,0.009503650614978971,0.005450409912841873,0.006726963358391667,0.10896506130461556,0.00335825094748117,0.0028805167849043282
928.0,0.009234318948073087,0.005689399188790034,0.007125189007133724,0.13317579088831966,0.003433276436594817,0.002990751440765621
930.0,0.0089912321128325,0.0059473192281128805,0.007569247011446309,0.16583415398225954,0.0035112549696431233,0.0031086610560260982
932.0,0.008772214493181111,0.006226290273467838,0.008066058184950748,0.20941218038882578,0.003592353494277134,0.003235026206255669
934.0,0.008575360571400752,0.006528739218492217,0.00862390522203157,0.2651217528920254,0.003676751206739981,0.0033707316663013505
936.0,0.008398999911875257,0.006857454331776829,0.0092527641174189,0.32886197331889766,0.0037646406564890663,0.00351678366891929
938.0,0.008241667650571077,0.007215651690294626,0.009964732805085683,0.3851005498704628,0.0038562289693140224,0.003674330594212705
940.0,0.008102079561155481,0.007607056266158855,0.010774590675850878,0.40842322699384664,0.0039517392037385505,0.003844687890578626
942.0,0.007979110945011534,0.008036001467055789,0.011700536167811429,0.3847101998576195,0.004051411857606563,0.004029368243809635
944.0,0.00787177873299486,0.008507552072110063,0.012765169394563382,0.3280772443200766,0.0041555065442065026,0.004230118293427711
946.0,0.007779226299473438,0.009027657038674199,0.01399681603550975,0.26393450178758654,0.0042643038601438065,0.004448963567393009
948.0,0.007700710580042587,0.009603340734443163,0.015431332609444619,0.2078099763736072,0.004378107470504137,0.004688263800219139
950.0,0.007635591157974739,0.010242943993216711,0.01711460005195975,0.16380001008907435,0.004497246440748378,0.004950781460403535
952.0,0.007583321044565343,0.010956430321179494,0.01910601566580217,0.13068779023220584,0.004622077849351884,0.005239767204924233
954.0,0.007543438927897611,0.011755778063761484,0.021483455166305166,0.10599586330944735,0.004752989720575297,0.005559067192898338
956.0,0.007515562705390524,0.012655487080597747,0.02435043359413289,0.08747204790489937,0.0048904043230905475,0.005913258859693994
958.0,0.007499384149574954,0.013673239522603473,0.02784660815456884,0.07340276161464206,0.005034781887676223,0.006307824070346792
960.0,0.007494664585265313,0.01483077027261613,0.03216344108456771,0.06256018640396,0.005186624806076912,0.006749371823328323
962.0,0.007501231480789958,0.01615502599823076,0.03756794671085428,0.054080102670744125,0.0053464823836806355,0.007245927291361584
964.0,0.00751897587713558,0.017679726505125,0.044439249070875396,0.04735402450629826,0.005514956231263027,0.007807310615899698
966.0,0.007547850597511888,0.019447494460599065,0.05332552573214932,0.04194984226992898,0.00569270639611672,0.008445638517706782
968.0,0.0075878691965979295,0.02151279980851383,0.06503301698575509,0.03755692704051501,0.005880458350974869,0.009175996012076448
970.0,0.007639105624146114,0.023946090248010178,0.08076302243056697,0.033948921988530965,0.006079010980929245,0.010017346805175187
972.0,0.007701694592190044,0.026839677538095193,0.102309910152354,0.030958586797984723,0.0062892457348851785,0.010993783299429107
974.0,0.007775832649283928,0.030316270135230687,0.1322917925368082,0.028460690529613593,0.0065121371400558205,0.012136267115564944
976.0,0.007861779979433084,0.03454157154622191,0.17419233286245925,0.026360261173909733,0.006748764916922411,0.01348508961177982
978.0,0.007959862958096217,0.039743253563254304,0.2313222484990445,0.02458441818148914,0.00700032797968106,0.015093407703449437
980.0,0.00807047751331033,0.04624014048602947,0.30226564942098033,0.023076623594335887,0.007268160665630769,0.01703241570597533
982.0,0.008194093357108656,0.05448810845358222,0.37053184652987103,0.021792584198447807,0.007553751609008186,0.019399056056403064
984.0,0.008331259171534586,0.06515392788110136,0.4007140233265836,0.02069729448450535,0.007858765764011271,0.022327753170164978
986.0,0.008482608855354196,0.07923665589210227,0.3705189978608583,0.01976287774415503,0.008185070192788425,0.026008661816196477
988.0,0.008648868962812594,0.0982706663738307,0.30223994534280035,0.01896699253865332,0.008534764372994361,0.03071669439756409
990.0,0.008830867495402822,0.12466694215451705,0.2312836755227815,0.018291644592629913,0.008910215953958727,0.03685874013026589
992.0,0.009029544242770532,0.16227127278231954,0.17414087073320397,0.017722292939363827,0.009314103110869361,0.045052030880811764
994.0,0.009245962910988986,0.21716838769735972,0.13222741420775744,0.01724717219181455,0.00974946492624709,0.05625584679975274
996.0,0.00948132532729233,0.2982768754357587,0.10223258175018202,0.016856775470985255,0.010219761585492412,0.07199128542946766
998.0,0.009736988072203617,0.41494403122347323,0.0806727032119864,0.016543458243151527,0.01072894663267345,0.09468583726520968
1000.0,0.010014481965700307,0.5618527564484936,0.064929659285164,0.016301134357800628,0.01128155412671447,0.12808806839569975
1002.0,0.010315534927287172,0.682957821181835,0.053209074900240245,0.016125043431246967,0.011882804311171434,0.177139248355676
1004.0,0.010642098845309457,0.6829823246892757,0.04430964340405943,0.01601157438504037,0.01253873242364457,0.2445001098194079
1006.0,0.010996381234644801,0.5619262831227098,0.03742511737133135,0.015958134099708223,0.013256346607400894,0.31724768167049466
1008.0,0.011380882642019417,0.41506662955131407,0.03200731201085084,0.015963053247938497,0.014043822664433415,0.3523051537923145
1010.0,0.01179844098503733,0.29844862633265057,0.027677095962246177,0.01602552375240275,0.014910745769115677,0.3173649545796887
1012.0,0.012252284298362889,0.21738940466373835,0.024167447466626572,0.016145564205408885,0.015868412475240387,0.24473490543088108
1014.0,0.01274609372664669,0.16254170212346575,0.02128689673536052,0.016324011163845388,0.016930210724739228,0.17749206761099678
1016.0,0.013284079073196666,0.12498696326463513,0.01889577888141388,0.01656253562916063,0.01811210157515863,0.12855966610944652
1018.0,0.013871069819013785,0.09864049208545522,0.016890571041413713,0.016863685352921955,0.019433234687847294,0.09527722624630756
1020.0,0.014512625313335026,0.07965653289217489,0.015193389525125105,0.01723095498027838,0.02091674125707619,0.07270374204142317
1022.0,0.015215168865367246,0.06562413719532245,0.013744828891090776,0.017668887566722774,0.022590764479807738,0.05709091801696946
1024.0,0.015986151821683132,0.05500896600091599,0.01249899988917112,0.018183212804484684,0.024489811041855214,0.046011542914212784
1026.0,0.016834255511854065,0.04681199770552691,0.01142003749771062,0.018781029531247526,0.026656540669604285,0.0379448087127191
1028.0,0.01776964135046851,0.04036649811565792,0.010479607333172491,0.01947104297356879,0.02914415940884311,0.03193173683841086
1030.0,0.018804262629045047,0.035216628093131724,0.009655100363075384,0.020263870985687417,0.03201965316398589,0.027355410954872903
1032.0,0.019952255948477906,0.031043601198944518,0.008928309001645979,0.021172438683470258,0.03536820182901788,0.023809273381873157
1034.0,0.02123043631080279,0.027619784445590635,0.008284444466955658,0.022212487920988948,0.039299266452883605,0.02101876148849153
1036.0,0.022658928307515185,0.024779514162913123,0.007711399175198784,0.023403237856895732,0.043955063339505517,0.018794090952652547
1038.0,0.02426197764218113,0.02240012285530136,0.007199187207104474,0.024768246656083005,0.04952245502458448,0.017001231159296897
1040.0,0.026069003947930377,0.020389340945717236,0.0067395156523083,0.0263365440344222,0.05624971804626296,0.015543659781977496
1042.0,0.02811597983330804,0.018676764240166635,0.006325453172238628,0.028144132703481716,0.06447016767455267,0.01435063220364778
1044.0,0.03044725587561103,0.01720796773081912,0.005951171503377458,0.030235998125953376,0.07463504773756459,0.01336947444277638
1046.0,0.03311800240474113,0.01594037523118165,0.00561174220225592,0.03266882702267234,0.08735775199770855,0.01256041538550922
1048.0,0.03619751506945317,0.014840315081826315,0.005302975599847626,0.03551472617803574,0.10346823572780656,0.011893055534467484
1050.0,0.039773746197693464,0.01388089055492459,0.005021292277659584,0.0388663705909505,0.12406450854288932,0.011343911628697237
1052.0,0.04395960022818471,0.013040418637095772,0.00476361979929185,0.04284421959360953,0.15051234554011747,0.01089468192148615
1054.0,0.04890180563790162,0.012301271121596619,0.004527309201086413,0.04760676146166379,0.18425282769515594,0.010531002741268733
1056.0,0.05479360852059013,0.011649004322376318,0.004310067050771671,0.0533652432869286,0.22609206744256075,0.010241545552392666
1058.0,0.06189322576145748,0.011071698462267413,0.004109899853935496,0.06040510488034934,0.2744677563905734,0.010017353734706351
1060.0,0.07055111880822074,0.010559451174842154,0.003925068316259742,0.0691174834472488,0.32276500697231963,0.00985135067952285
1062.0,0.08125098558607852,0.01010398552699386,0.003754049519677407,0.08004579740554682,0.3586190723893786,0.009737972120378647
1064.0,0.09467237457423655,0.009698344015904796,0.003595505489483189,0.09395445502819624,0.3707589925178058,0.009672889883118246
1066.0,0.11178767191935599,0.009336647731635625,0.003448256950530925,0.11192816091932982,0.3600701975567443,0.009652803934492405
1068.0,0.13401361836414497,0.009013905359894705,0.0033112613184480507,0.13550688272791742,0.339624501529714,0.009675286298207698
1070.0,0.1634470877364465,0.008725860628238834,0.003183594164238656,0.16683872779850706,0.3235919086476479,0.009738665096605627
1072.0,0.2032199462551877,0.008468869643042099,0.003064433541004865,0.2087461988405473,0.32003720819719284,0.009841940319258127
1074.0,0.2579754679320724,0.008239801643661598,0.0029530466796744434,0.2643348036640456,0.3304775235193111,0.009984725350127446
1076.0,0.3342697490861452,0.00803595823416719,0.002848778653990339,0.3351360058476257,0.35024173560545097,0.010167210094747341
1078.0,0.4399103817648768,0.007855007294645206,0.0027510426891871284,0.41604202088268527,0.367859406035432,0.010390142939352786
1080.0,0.5789091092843499,0.007694928630814805,0.0026593118479964653,0.48765824929813506,0.36828094362010877,0.010654829887453253
1082.0,0.7354958480530337,0.007553969068682918,0.002573111875132359,0.5182409230348344,0.3435059719756664,0.010963150160825847
1084.0,0.8519041768317979,0.007430605194746005,0.0024920150197001415,0.4901687089360901,0.29975543759886436,0.011317588402874584
1086.0,0.8536445341645227,0.007323512321214124,0.0024156346859757188,0.42112052391788013,0.25025969556474137,0.01172128445139838
1088.0,0.7407646884947523,0.00723153854857525,0.0023436207882099854,0.34290086355529475,0.20478096985208263,0.01217810251874191
1090.0,0.5878529155086403,0.00715368302559908,0.002275655705694567,0.27497164770932303,0.16707496428185994,0.01269272259585118
1092.0,0.4527842619433278,0.007089077685183097,0.002211450751195323,0.22251867874340678,0.1372230753911829,0.013270758057801396
1094.0,0.3514552888530767,0.007036971874882992,0.0021507430797412463,0.18410441676205982,0.11396123108056423,0.013918904883966951
1096.0,0.28000878149674807,0.006996719412260704,0.002093292976220126,0.15674011474252786,0.09584012619829381,0.014645129735675251
1098.0,0.2308336718570928,0.006967767683912755,0.00203888146973317,0.1377524183722906,0.08162083215396165,0.015458906518913372
1100.0,0.19763231572349882,0.0069496484782192915,0.001987308230561692,0.1251882600098844,0.07034447218844177,0.016371514221849556
1102.0,0.1761112546381686,0.006941970299316649,0.0019383897121911236,0.1177680731032145,0.06129661353581908,0.01739641306960484
1104.0,0.16362435862542274,0.006944411956499592,0.001891957506355206,0.11476139348218589,0.053951273787233904,0.018549721828991377
1106.0,0.15876511769695242,0.006956717261498288,0.001847856883695718,0.11589389356397516,0.04792103225879034,0.01985082707091978
1108.0,0.16111888510772165,0.006978690697641408,0.001805945496533983,0.12130994536774643,0.04291864116679427,0.02132316630598258
1110.0,0.1711935943500824,0.007010193951222541,0.001766092223544668,0.13159327742946253,0.03872908030717041,0.022995242555520636
1112.0,0.19051871262753614,0.0070511432175528995,0.001728176138912155,0.14784180801417432,0.03518964164385987,0.024901950217716916
1114.0,0.22188444390652898,0.007101507213108754,0.001692085590918609,0.17177363029832032,0.032175813945768766,0.0270863242468111
1116.0,0.26956226979576575,0.007161305841597485,0.0016577173769295678,0.20576505701052922,0.02959125334573064,0.02960187163037175
1118.0,0.33879683258439897,0.0072306094762743574,0.001624976003464134,0.2524834254765996,0.027360609434419723,0.032515713649615426
1120.0,0.43221538800454595,0.00730953883394959,0.001593773021509538,0.31320521811761975,0.025424348370088872,0.03591287167041035
1122.0,0.5385245154466237,0.0073982654282687774,0.0015640264285028621,0.383249775387367,0.023734980032080914,0.03990218786730934
1124.0,0.6168157450593529,0.007497012601416461,0.0015356601294884077,0.4450908245134852,0.02225428005119205,0.044624617266019066
1126.0,0.6143954273645933,0.007606057144738943,0.0015086034508945793,0.47009596427372713,0.02095122323834914,0.05026501141989171
1128.0,0.5311959952321575,0.0077257315302487785,0.00148279070118178,0.4423474904186626,0.01980043067021302,0.057069124533665826
1130.0,0.4197714632485184,0.007856426786899419,0.0014581607733116164,0.37769922044401044,0.01878099134306814,0.06536855678231372
1132.0,0.3208766272304084,0.007998596068256657,0.001434656784593591,0.30471617643522825,0.01787555966717143,0.07561795280012641
1134.0,0.24562594652463687,0.008152758972124613,0.0014122257499918772,0.24084992798139085,0.01706965805864628,0.0884514002147199
1136.0,0.1911734693836876,0.00831950668823184,0.0013908182854329644,0.19069454745010525,0.016351133455724053,0.10476925334770731
1138.0,0.15199636957905227,0.008499508067733717,0.0013703883380546146,0.15286929491227078,0.015709730394405822,0.12587337420670452
1140.0,0.12345725713244299,0.008693516728609513,0.0013508929406857721,0.12457720456242509,0.015136753110953598,0.15367852880262034
1142.0,0.10227059662758871,0.008902379334703546,0.0013322919881527545,0.1032763533733907,0.014624796203809983,0.19103775357435296
1144.0,0.08621904511700539,0.009127045213997244,0.0013145480332751218,0.0870320528324138,0.01416752850998034,0.24221262677431776
1146.0,0.07381691594716962,0.009368577514699366,0.0012976261006501203,0.07445717183451259,0.013759518597352378,0.3134211231520468
1148.0,0.0640594984519154,0.009628166137130894,0.0012814935165318395,0.06457451039784676,0.013396093037788433,0.41293690427767477
1150.0,0.05625647431181163,0.009907142726677155,0.001266119753293899,0.056695299930544306,0.013073220680814642,0.5486228883368145
1152.0,0.04992484336787416,0.010206998070173667,0.001251476287125782,0.050329803734167,0.012787417688046546,0.7171163038285286
1154.0,0.04472036507041313,0.010529402307352888,0.0012375364677555856,0.04512546037613985,0.012535669251854148,0.879251734086246
1156.0,0.040393282167100406,0.01087622845338809,0.001224275399118344,0.04082494330470686,0.012315364806906263,0.9509379622775248
1158.0,0.036759322134493407,0.011249579831898938,0.0012116698300012046,0.03723779489306643,0.01212424422148439,0.8792286558340692
1160.0,0.033680394070096806,0.011651822144821949,0.0011996980537964,0.034221126846387694,0.011960352978771075,0.7170700824726081
1162.0,0.03105152165749994,0.012085621062411017,0.0011883398165816765,0.031666356502125674,0.011822004764817243,0.5485533938076729
1164.0,0.028791849723377932,0.012553986411154645,0.0011775762328269514,0.029489981835124194,0.011707750197753386,0.412843940551492
1166.0,0.02683835505073302,0.01306032427966595,0.0011673897080966087,0.02762708386083799,0.01161635068300882,0.3133044271365857
1168.0,0.02514138145368966,0.013608498665662697,0.0011577638681800721,0.026026691824123392,0.011546756577568665,0.24207186680572612
1170.0,0.02366142482336956,0.014202904667950694,0.0011486834941399357,0.02464843633435511,0.011498089004504703,0.1908725275092379
1172.0,0.022366787569317016,0.014848555707954528,0.0011401344628177977,0.023460104281983456,0.011469624786192728,0.153488361685412
1174.0,0.021231846467312174,0.015551187874758364,0.0011321036923837005,0.022435833176360134,0.011460784067689831,0.1256577154876094
1176.0,0.020235759253212592,0.016317385263917863,0.001124579092556319,0.021554764595070944,0.0114711202860276,0.10452747362141376
1178.0,0.01936148917561585,0.017154731173799738,0.00111754951915829,0.020800031420821246,0.011500312210834307,0.08818278744436263
1180.0,0.01859506291798143,0.018071991300616142,0.0011110047327047832,0.020157990825745688,0.011548157839995665,0.075321707984737
1182.0,0.017925001961021193,0.01907933672341801,0.0011049353607540308,0.01961764055285485,0.011614569983594263,0.06504378901895176
1184.0,0.017341884484481,0.020188616611539336,0.0010993328637763523,0.019170173830579323,0.011699573412225729,0.056714845417497065
1186.0,0.016838006824244692,0.02141369337771263,0.0010941895043236163,0.018808640784822313,0.011803303483693886,0.04988012871648564
1188.0,0.01640712195497166,0.022770856652237277,0.0010894983193043284,0.018527693169132033,0.011926006196483051,0.044207927779877636
1190.0,0.016044238554235916,0.024279337250564848,0.00108525309519088,0.01832339574832254,0.012068039650544427,0.039452369418876435
1192.0,0.015745468657783285,0.025961948626133456,0.0010814483460051684,0.018193092514559594,0.012229876926938875,0.03542847408026593
1194.0,0.015507915240789724,0.027845891641936453,0.001078079293947027,0.018135319623041272,0.012412110428801384,0.03199514861289416
1196.0,0.015329593608157352,0.029963769510561327,0.0010751418525468273,0.018149759889488033,0.0126154577579651,0.029043401346261738
1198.0,0.015209382499237414,0.03235487427515357,0.0010726326122394735,0.018237236178426937,0.01284076923546344,0.02648804864679869
1200.0,0.01514700249544466,0.03506682524923312,0.0010705488282718653,0.01839974325496722,0.01308903721115493,0.024261792611464907
1202.0,0.015143020809186548,0.038157664543478007,0.0010688884108699995,0.01864051986768534,0.013361407349155944,0.022310933484188025
1204.0,0.015198882953133342,0.04169854623432114,0.0010676499176052584,0.01896416516289984,0.01365919212308273,0.020592225358551056
1206.0,0.015316973255907045,0.04577719425931748,0.0010668325479122791,0.019376806201503984,0.013983886810023554,0.01907054237862731
1208.0,0.015500707824793491,0.05050234811653917,0.001066436139723186,0.019886326596387012,0.014337188336766211,0.01771712690498929
1210.0,0.015754665498203344,0.056009458180167525,0.0010664611681950446,0.020502670414670045,0.014721017408643138,0.016508260603852583
1212.0,0.01608476475618533,0.06246791552728988,0.001066908746519224,0.021238240900929038,0.015137544443580425,0.015424246373061645
1214.0,0.016498497699911508,0.0700900606142025,0.0010677806288130805,0.022108420836746325,0.015589219945493482,0.01444862116361667
1216.0,0.017005236392833765,0.07914201268671686,0.0010690792151060707,0.02313225124880374,0.016078810087030847,0.013567542036051736
1218.0,0.017616632532621104,0.08995578762661009,0.0010708075584441716,0.024333318837866207,0.016609438438138842,0.012769303417298067
1220.0,0.018347139249333237,0.10294079570055042,0.0010729693741484481,0.02574092153650585,0.017184634982058022,0.012043954606145506
1222.0,0.019214694756665394,0.11858979354523587,0.0010755690512758364,0.027391608325115432,0.017808393814517782,0.011382994518935503
1224.0,0.02024162302571622,0.13746820186749284,0.0010786116663428482,0.02933122713820035,0.018485241238436867,0.01077912641812177
1226.0,0.02145582869152994,0.16016411705515074,0.0010821029993860177,0.03161766800344926,0.019220316362734524,0.010226059569733999
1228.0,0.022892395156665944,0.18715734286920185,0.001086049552446667,0.0343245637692581,0.02001946681260377,0.009718347875840817
1230.0,0.02459574098542196,0.21854288220040588,0.0010904585705820364,0.037546315894971885,0.02088936278961421,0.00925125783406511
1232.0,0.026622557150818627,0.25354226877155484,0.0010953380655202012,0.04140495644583886,0.02183763352270979,0.008820659905447597
1234.0,0.029045846801435765,0.28982807233721264,0.0011006968420925571,0.04605954456389317,0.02287303117794774,0.008422938678752535
1236.0,0.03196053480789814,0.3229863436476343,0.001106544527595215,0.051719014084624246,0.02400562861578726,0.008054918214129231
1238.0,0.03549132667921184,0.3468974707513815,0.0011128916042495492,0.05865957256694432,0.025247059094238546,0.007713799711667062
1240.0,0.03980379959365133,0.35577800893862044,0.0011197494449525548,0.06724768510954576,0.026610808242056447,0.007397109238902931
1242.0,0.045120119908666004,0.3471939965708094,0.0011271303525298652,0.07796875408067691,0.028112571542726582,0.007102653708392844
1244.0,0.05174127539431965,0.3235805527251434,0.0011350476027284144,0.09145826213865,0.029770694416537034,0.006828483653563833
1246.0,0.060078100219642924,0.29072229238578634,0.001143515491212118,0.1085225938835898,0.03160671709526522,0.006572861631691952
1248.0,0.07069297332809579,0.25474002372055415,0.0011525493848528372,0.13011269380174156,0.0336460533120856,0.006334235304604287
1250.0,0.08435078132365444,0.22004893179450447,0.0011621657776406413,0.15716043611461442,0.03591884102277393,0.006111214423858527
1252.0,0.10206564925928446,0.1889777367732621,0.0011723823515723288,0.19009373423033493,0.03846101584193023,0.005902551087797737
1254.0,0.12509401263907213,0.16230626464183473,0.00118321804291573,0.22776952649356116,0.04131567490903739,0.005707122750714763
1256.0,0.15473282314678424,0.13994095923332256,0.0011946931142899492,0.26582432907265563,0.04453482233302482,0.005523917555309902
1258.0,0.19159606910429988,0.12140356972497113,0.0012068292330489477,0.29569556706825395,0.0481816198367355,0.0053520216332604564
1260.0,0.23386261093646782,0.10610768054609779,0.0012196495565082834,0.30727257282548665,0.0523333115238774,0.005190608078593839
1262.0,0.2745656827492645,0.0934897044060332,0.0012331788246131156,0.2957809606708217,0.05708505527129902,0.0050389273474398455
1264.0,0.3008593860430071,0.08305889916726948,0.0012474434607104919,0.2659954539928528,0.06255498292079353,0.004896298877808142
1266.0,0.30081538962948096,0.07440808325345091,0.0012624716811613374,0.22802706127541542,0.06889093828816072,0.0047621037560084
1268.0,0.2744335841206981,0.06720772245015627,0.0012782936146084666,0.19043870452627906,0.07627952139093602,0.004635778283560605
1270.0,0.2336420812599414,0.061194477920908555,0.001294941431807457,0.15759422423505137,0.08495831956670712,0.004516808321011251
1272.0,0.1912865580875902,0.05615914272299398,0.001312449487028679,0.13063705169499965,0.09523255563239649,0.004404724303839906
1274.0,0.15433355565593632,0.05193587738323359,0.001330854472152652,0.10913965976639799,0.10749785170128948,0.004299096841300995
1276.0,0.12460398390972582,0.04839327938581984,0.0013501955847089041,0.09217058106295903,0.1222713918810986,0.004199532822154406
1278.0,0.10148361864733281,0.04542724792805622,0.0013705147112526548,0.07877930279603695,0.14023437695924174,0.004105671962245295
1280.0,0.08367526452358309,0.04295540374301319,0.001391856627636164,0.06815990166348272,0.1622889514387225,0.004017183738162909
1282.0,0.06992223296880884,0.04091278441126758,0.0014142692179151535,0.059677391181398455,0.18963171178450478,0.003933764659037417
1284.0,0.05921013472735206,0.039248560228646846,0.0014378037138383444,0.05284690595757418,0.22384069370445936,0.0038551358351648747
1286.0,0.05077380598975483,0.03792356051331696,0.0014625149571034196,0.047302565375469785,0.26695642092310573,0.0037810408077824506
1288.0,0.04405057558098567,0.036908447020984114,0.0014884616868296883,0.042768801502042916,0.32149403526719117,0.0037112436091120346
1290.0,0.0386292998654482,0.03618241344173759,0.0015157068550012169,0.03903738402508789,0.39022011543899204,0.0036455270258851664
1292.0,0.034208661945293116,0.03573232651669247,0.0015443179729797577,0.03595003131207785,0.4753189087704698,0.0035836910430672316
1294.0,0.030566143994322722,0.035552256067074905,0.0015743674925809252,0.03338557448104583,0.576281687973052,0.0035255514475064937
1296.0,0.027535792049731524,0.03564337000133094,0.0016059332256574584,0.03125057453496952,0.6859236986491255,0.003470938573820675
1298.0,0.02499249518432888,0.03601419841443836,0.0016390988066489127,0.029472476277662984,0.7858578572897694,0.00341969617706466
1300.0,0.022840890759077546,0.03668130083843185,0.0016739542031483172,0.02799460121385781,0.8477492695550877,0.003371680418651154
1302.0,0.02100750132662768,0.03767040568096489,0.0017105962802156163,0.026772468873257564,0.8478794695263849,0.0033267589536667493
1304.0,0.01943512036525297,0.039018134841922306,0.0017491294249496808,0.025771079801916726,0.7862487911320984,0.003284810109176865
1306.0,0.018078767163813358,0.04077448455017946,0.0017896662387326926,0.024962898754697312,0.6865763702026662,0.0032457221443762717
1308.0,0.01690274349275653,0.04300631228311819,0.001832328305603313,0.024326352054078668,0.5771977771774334,0.0032093925845444004
1310.0,0.015878470269507294,0.045802187504477336,0.0018772470464226846,0.023844706669981765,0.4765007820550379,0.0031757276217294203
1312.0,0.01498288150807618,0.04927910973554878,0.0019245646698991567,0.023505236635752998,0.3916708404332269,0.0031446415759314146
1314.0,0.014197220282590585,0.05359178623005271,0.0019744352331684967,0.023298609599343316,0.3232173999988459,0.0031160564112996877
1316.0,0.01350612752886874,0.05894538117960094,0.002027025826528038,0.02321844594424325,0.268956957724667,0.0030899013025163643
1318.0,0.01289694621928325,0.065612832952047,0.0020825178991458896,0.02326101735841872,0.22612370810559607,0.003066112247120195
1320.0,0.01235918543415658,0.07395776973423784,0.0021411087451705182,0.023425062655824714,0.1922033167304025,0.0030446317200413884
1322.0,0.011884104230238966,0.08446313230398088,0.002203013172724805,0.023711707275347205,0.1651561072428407,0.0030254083670792613
1324.0,0.011464386057059229,0.09776226937912845,0.0022684653818707164,0.02412448010530381,0.14340493747551325,0.003008396734467486
1326.0,0.011093882197003803,0.11465971932978535,0.0023377210818837932,0.024669427834512394,0.12575415746656785,0.0029935570320434486
1328.0,0.010767408254342619,0.1361048346593578,0.0024110598832122027,0.025355333551262356,0.11130262963758465,0.0029808549278747144
1330.0,0.010480581740009822,0.16302812385080973,0.002488788005474014,0.02619405342910911,0.0993702287855134,0.0029702613725020224
1332.0,0.010229691738491748,0.19585633745302217,0.0025712413499661313,0.027200993754351498,0.08944092419203016,0.0029617524512392836
1334.0,0.010011593809861809,0.23344543443834903,0.002658788993662454,0.028395761126154228,0.08112033513742235,0.0029553092632308535
1336.0,0.009823624890112301,0.2714311191336708,0.0027518371718680745,0.02980303253150377,0.07410457962598406,0.00295091782620859
1338.0,0.009663534159027121,0.30125015937935906,0.0028508338289444986,0.031453710722620605,0.06815752341507333,0.0029485690061193197
1340.0,0.009529426755424928,0.3127913745580815,0.0029562738312929825,0.033386456095861966,0.06309414635636883,0.0029482584710104113
1342.0,0.009419717912488905,0.3012800024501415,0.0030687049546615137,0.03564972220052828,0.05876832770459587,0.002949986668770126
1344.0,0.009333095617335776,0.2714905206363572,0.003188734779556519,0.038304472508763406,0.05506382056379627,0.0029537588285229897
1346.0,0.009268490309956214,0.23353381891705527,0.0033170386550151272,0.04142782734049647,0.0518875351780836,0.002959584985681351
1348.0,0.009225050457299775,0.19597282610402816,0.003454368923395724,0.04511799026545198,0.04916450311502582,0.0029674800308550865
1350.0,0.00920212309089893,0.1631715152830057,0.003601565638659767,0.049500943577437534,0.04683407385930027,0.0029774637830247155
1352.0,0.009199238597717478,0.1362735783944022,0.003759569059746653,0.054739594086559824,0.044847022282340214,0.002989561087591658
1354.0,0.009216099216476913,0.1148518812727872,0.003929434261526987,0.06104630005806198,0.043163335252872755,0.0030038019401357353
1356.0,0.00925257082520188,0.09797548824179822,0.004112348281610472,0.06870000139036388,0.04175050939035564,0.003020221636937156
1358.0,0.00930867771761784,0.0846945656712097,0.004309650316074369,0.07806941997922104,0.040582237457735676,0.0030388609535612413
1360.0,0.00938460016225786,0.07420402811874566,0.0045228555963078496,0.08964370807445775,0.039637393601715414,0.0030597663530623773
1362.0,0.00948067462350838,0.06586989976372135,0.004753683729645682,0.10407069282350873,0.03889925137953028,0.003082990225642798
1364.0,0.00959739660239883,0.05920851602587432,0.005004092477545399,0.122198406911563,0.03835488591290867,0.0031085911619058637
1366.0,0.009735426130280316,0.05385540833505034,0.005276318189037071,0.14510285920896693,0.03799472444211982,0.0031366342621770875
1368.0,0.009895596023948027,0.049536657485385556,0.005572924420473153,0.1740529224844494,0.03781221933174773,0.00316719148473438
1370.0,0.010078923089488804,0.04604594915095269,0.005896860677332982,0.21029217256999447,0.03780362514889865,0.0032003420361977307
1372.0,0.010286622547570425,0.043227221612341264,0.006251533739934887,0.254392382877687,0.0379678674848515,0.0032361728077843644
1374.0,0.010520126048768823,0.040961873773619054,0.006640894723225778,0.30483085691321316,0.03830649624446982,0.003274778861646143
1376.0,0.010781103758165664,0.039159434999765944,0.007069545927481539,0.3557911870478304,0.03882372059716526,0.0033162639720802157
1378.0,0.01107149111899972,0.037750782336223344,0.007542872739470272,0.3958583882512318,0.03952652701911931,0.0033607412270520993
1380.0,0.01139352106196213,0.03668320961955317,0.008067207450828584,0.4115535928234706,0.040424886183521004,0.003408333696204138
1382.0,0.011749762617744262,0.035916840815194015,0.008650034024568575,0.3965132526525425,0.041532059206655106,0.003459175172355578
1384.0,0.012143167125811644,0.035422024478294886,0.009300245777991642,0.35710628466641675,0.042865019308638605,0.0035134109944494427
1386.0,0.012577123525152736,0.03517745249953375,0.010028471969972265,0.3068170229972637,0.04444501175759985,0.0035711989609847755
1388.0,0.013055524579941092,0.035168822994679785,0.010847494828278069,0.2570661174866246,0.04629828362885493,0.003632710344213029
1390.0,0.013582846356968329,0.035387922436794714,0.011772786276203257,0.21367594616602914,0.048457026223849724,0.0036981310168004403
1392.0,0.014164243861858676,0.03583204235665756,0.012823204466754895,0.17817559881437783,0.050960588056251324,0.0037676627042951237
1394.0,0.01480566649674796,0.03650367598033061,0.014021905608812057,0.15000024969736087,0.05385703666404571,0.003841524378624897
1396.0,0.015513997975965166,0.03741046360529728,0.015397548556674502,0.1279139756736133,0.05720517532806024,0.00391995381003304
1398.0,0.0162972265993667,0.03856537503214282,0.016985901344654095,0.11065643731979805,0.06107715918362515,0.004003209297385968
1400.0,0.017164653431907623,0.03998713510945908,0.01883200494198235,0.09716124773210974,0.0655619086717517,0.004091571599720893
1402.0,0.018127148104878872,0.04170091627724973,0.02099311694246111,0.08659133426446707,0.07076959320973532,0.004185346095316985
1404.0,0.01919746482090299,0.04373934172387356,0.02354275698411344,0.07831147045774349,0.07683756356536108,0.004284865198558899
1406.0,0.020390634963497307,0.046143866392254373,0.02657632126683178,0.07184711605110483,0.08393826073533238,0.004390491069523678
1408.0,0.021724457834904475,0.048966632972048126,0.030218945849856252,0.06684663054265852,0.09228984024101002,0.004502618656689795
1410.0,0.02322011796780782,0.05227293923430345,0.03463660155161855,0.06305119571528463,0.10217054760336007,0.004621679119596583
1412.0,0.024902966877390242,0.05614450555884861,0.04005181488272687,0.060272332283778665,0.11393829195966455,0.004748143685863054
1414.0,0.026803520035752277,0.0606838023813087,0.04676590331324674,0.05837567708511547,0.12805741596250472,0.004882528005937949
1416.0,0.02895873768508462,0.06601979285993222,0.05519000295216836,0.0572696129056932,0.14513534790794233,0.005025397079580236
1418.0,0.03141368290382553,0.07231557328843456,0.06588676931690743,0.0568976081433924,0.1659725395774229,0.005177370840707298
1420.0,0.03422368504252642,0.07977855802861197,0.07962134235019576,0.057233442525718256,0.19162943125118345,0.005339130502322798
1422.0,0.03745718547891413,0.08867405436422156,0.09740807910703415,0.05827878277539052,0.2235129247782765,0.00551142578127423
1424.0,0.04119951163630907,0.09934327851363965,0.12050362744968987,0.060062815902691045,0.2634787149743661,0.005695083144243834
1426.0,0.045557922843119075,0.11222698519734936,0.1502051332866312,0.06264385891854675,0.31392663508407,0.005891015242458311
1428.0,0.05066840941866674,0.12789566870246302,0.1871267623788903,0.06611305888955485,0.3778149218922542,0.006100231734127639
1430.0,0.0567049190199352,0.1470861187709884,0.2294475370078129,0.07060049105053817,0.4583976443802726,0.006323851731864805
1432.0,0.06389194761870551,0.1707405137648175,0.2702008386261953,0.07628416153086726,0.5582437950276563,0.0065631181589017405
1434.0,0.0725217755025803,0.20003495201655047,0.2965409025277189,0.08340261090232735,0.6767541754797485,0.006819414354833752
1436.0,0.08297802905250112,0.23636269751865785,0.29653951861498345,0.09227193067504047,0.8054754480142449,0.0070942833414792406
1438.0,0.09576758561296927,0.2811918365580317,0.270196686643809,0.10330786191384672,0.9227750700769836,0.007389450245534996
1440.0,0.11156271610439887,0.3356350407886946,0.22944061622310907,0.11705277703864159,0.9953171939506146,0.007706848481279855
1442.0,0.13125366921966988,0.39946853063191357,0.18711707157033283,0.13420465451613953,0.9951970617310424,0.008048650429104387
1444.0,0.15600577081952627,0.46937298612536965,0.15019267074317685,0.155638201768926,0.922414379331947,0.008417303511224983
1446.0,0.18729760005702206,0.5368043272841639,0.12048839096989458,0.18239206803368568,0.8048733147124022,0.008815572773849497
1448.0,0.22687269800117205,0.5876098423249421,0.09739006599790229,0.21556190791798374,0.6759091203078318,0.009246591347470629
1450.0,0.27643958076016445,0.6067498093741711,0.07960054942577113,0.25597755830640756,0.5571537344294331,0.009713920489952626
1452.0,0.336782774581877,0.5874968979750336,0.06586319289660475,0.30346714211613846,0.4570598778708315,0.010221621342022043
1454.0,0.40580662356317704,0.5365778273116508,0.0551636388588432,0.35553765387493963,0.3762261155043501,0.01077434107028207
1456.0,0.475511303183356,0.4690317016007272,0.046736746871001995,0.40577796447683817,0.3120828007579401,0.01137741677749496
1458.0,0.5301985933169152,0.39901060208443173,0.04001986091445349,0.44357085058654305,0.2613751856536693,0.012037001475954406
1460.0,0.5513320405174473,0.3350579585864038,0.034601844376267794,0.4576341553077569,0.22114432492164357,0.01276021761889081
1462.0,0.5301583097917612,0.28049241419027987,0.03018137927944066,0.44292029278587985,0.1889896424102491,0.013555345265733158
1464.0,0.47543069835304586,0.23553703728309422,0.026535938603151624,0.4044724527853194,0.1630546606269077,0.014432054056956198
1466.0,0.40568562176037837,0.19907840246104277,0.02349955101520515,0.35356831925604354,0.1419316494399665,0.015401690985716178
1468.0,0.3366212620366623,0.16964761806418796,0.020947079938763866,0.30082048639815,0.12455928827420143,0.0164776397491168
1470.0,0.2762374052755921,0.1458505530227824,0.01878312865221874,0.2526352135819195,0.11013618596839372,0.017675772631414025
1472.0,0.22662966851786914,0.1265101688985155,0.01693417699142034,0.21150030358993716,0.09805390791512307,0.01901502297745524
1474.0,0.1870134861042855,0.11068326136049453,0.015342966831735501,0.1775819942885754,0.08784702947231642,0.02051811617839433
1476.0,0.15568030184979365,0.09763191417143306,0.013964456668096136,0.15004425438048807,0.07915647404352688,0.022212510925247973
1478.0,0.13088653382251855,0.0867843891514893,0.012762877925042763,0.12778454117453042,0.07170273217337583,0.02413162209892227
1480.0,0.11115356109550036,0.07769855075232747,0.011709571201505372,0.10975645956365201,0.06526627551367607,0.026316424793410564
1482.0,0.0953160149926526,0.07003164223207384,0.0107813797358942,0.09507650135621057,0.059673167287938915,0.028817579799523412
1484.0,0.08248360282775266,0.06351662942496622,0.00995944481622667,0.08303659291788114,0.05478442201873121,0.0316982809053229
1486.0,0.07198400836542077,0.057944153328787065,0.009228293953636897,0.07308267824433848,0.05048807843330225,0.035038113809479646
1488.0,0.06331030747292893,0.05314891808290161,0.00857514434785069,0.06478537990860783,0.04669324625156371,0.038938351575904966
1490.0,0.056078825347156656,0.048999461818564474,0.007989366160205581,0.05781256172529897,0.04332559859995518,0.04352931869402788
1492.0,0.04999723147349643,0.04539046338020255,0.0074620654859760115,0.05190665576270241,0.040323931022226485,0.048980778035523954
1494.0,0.044840977666044536,0.04223693613452689,0.006985757766726121,0.04686691560277194,0.037637513553707834,0.05551680370789928
1496.0,0.04043606187151104,0.03946982380298661,0.006554110107023357,0.04253587668482615,0.03522403712575188,0.06343741735492844
1498.0,0.03664643698274796,0.037032639792223154,0.006161736507549261,0.03878914359258862,0.03304800886233858,0.07315058604850089
1500.0,0.033364784266750644,0.03487888617295122,0.005804034046330851,0.03552771483536288,0.031079489033828504,0.08522033971391813
1502.0,0.030505714035830835,0.032970058154228835,0.005477050977174353,0.03267220981985245,0.02929309000185668,0.1004403019383301
1504.0,0.028000719525345392,0.03127409083182669,0.005177379878550612,0.030158511379329307,0.027667177525689216,0.11994762871524345
1506.0,0.025794402590461007,0.029764142127942983,0.00490207059337952,0.027934460021301375,0.02618322946790908,0.14540106052030458
1508.0,0.023841627641710012,0.028417632947767363,0.004648558902879577,0.025957330963685004,0.024825317752842052,0.17925805510145784
1510.0,0.02210535787235331,0.027215485425100085,0.004414607784312096,0.02419189603999468,0.023579687463829647,0.22519195002457315
1512.0,0.02055499682489449,0.02614151472199236,0.004198258790766434,0.02260892482944335,0.02243441297359703,0.28865204726138566
1514.0,0.019165107176463175,0.025181940631823288,0.00399779161723104,0.021184017569026117,0.021379115526896007,0.37733534954183834
1516.0,0.01791441332483051,0.024324993249898945,0.003811690321922109,0.019896690260392508,0.020404730125388102,0.5004078646357025
1518.0,0.016785019154141385,0.023560592967043117,0.0036386149851400317,0.018729652716853847,0.019503312182883557,0.6625656897884097
1520.0,0.015761790193238263,0.02288008954763618,0.0034773778318986973,0.017668235181808233,0.018667876429639303,0.8452268462713441
1522.0,0.01483186229433056,0.022276048463156912,0.003326923035653433,0.016699930094934725,0.017892262097821868,0.9803950604653485
1524.0,0.013984248379824038,0.02174207524809247,0.0031863095709314185,0.015814023670955496,0.017171019627458216,0.9803909273836716
1526.0,0.01320952172614101,0.021272670633439784,0.003054696601797743,0.015001297966496921,0.016499315075682017,0.8452144456194405
1528.0,0.012499559375211319,0.020863110745390108,0.0029313309878799916,0.014253788603467998,0.015872849153466075,0.6625450173444373
1530.0,0.011847333081823036,0.020509347844976537,0.002815536565465039,0.013564586695824811,0.015287788399662319,0.5003789133591807
1532.0,0.011246738070283724,0.020207928011485243,0.00270670492206526,0.012927676082340502,0.014740706467105872,0.37729810956752496
1534.0,0.010692452039056752,0.01995592290028301,0.002604287431980136,0.012337798912973166,0.014228533866451499,0.2886065058906913
1536.0,0.01017981849906926,0.019750873280980435,0.002507788360194419,0.01179034412533146,0.013748514810700734,0.22513809171449756
1538.0,0.009704749792276986,0.019590742519751195,0.0024167588743558574,0.011281254494125825,0.013298170042735357,0.179195861451031
1540.0,0.009263646108321297,0.019473878536968886,0.0023307918310501944,0.010806948824153602,0.012875264721727665,0.14533051025451002
1542.0,0.008853327569725955,0.019398983068647714,0.002249517224306625,0.010364256548479597,0.012477780601471637,0.11986869766639707
1544.0,0.008470977042630851,0.019365087303355087,0.0021725982021452753,0.009950362534440045,0.012103891861828007,0.10035296302488372
1546.0,0.008114091789724111,0.019371533167680043,0.002099727571750311,0.009562760325736087,0.011751944059369824,0.08512456291665255
1548.0,0.007780442444186014,0.01941795970275264,0.0020306247261003673,0.009199212385464062,0.011420435749498118,0.07304633838406892
1550.0,0.007468038070252291,0.019504294119525166,0.0019650329350771774,0.008857716172383016,0.0111080024033673,0.06332466284670363
1552.0,0.007175096304246545,0.019630747247910134,0.0019027169525773183,0.008536475096243182,0.010813402301774605,0.05539550335408142
1554.0,0.006900017752443005,0.01979781320973447,0.0018434608982716687,0.008233873569243374,0.010535504137008517,0.048850889774447764
1556.0,0.006641363968734828,0.020006273252387925,0.00178706637863602,0.007948455508625947,0.01027327609434467,0.04339079736661613
1558.0,0.00639783845338212,0.020257203783107698,0.0017333508169117082,0.007678905757004681,0.010025776218893544,0.038791148885202346
1560.0,0.006168270209973743,0.02055198874687908,0.001682145965908091,0.007424033977659578,0.009792143902028861,0.034882178277198236
1562.0,0.005951599475733515,0.02089233659770629,0.0016332965811606361,0.007182760655948399,0.009571592345619873,0.031533557825324736
1564.0,0.0057468653040157495,0.021280302227405092,0.001586659235017046,0.006954104898494242,0.009363401882536095,0.02864401118815982
1566.0,0.00555319473008143,0.02171831434229149,0.0015421012548279143,0.006737173771527657,0.00916691404902713,0.026133949336632187
1568.0,0.005369793294247579,0.022209208920918152,0.001499499770640937,0.00653115296076097,0.00898152631912507,0.023940175096067315
1570.0,0.00519593673202057,0.02275626955083306,0.0014587408596992695,0.00633529856909903,0.0088066874236013,0.022012024229409965
1572.0,0.005030963670262809,0.023363275635744224,0.001419718776675319,0.0061489298966584975,0.008641893186586699,0.020308518133263856
1574.0,0.004874269192923219,0.024034559694399014,0.0013823352599729572,0.005971423071031033,0.00848668282202675,0.01879623835052315
1576.0,0.00472529916028589,0.02477507524867934,0.001346498905638597,0.005802205415331269,0.008340635639933232,0.01744772254341616
1578.0,0.004583545182783487,0.02559047713298522,0.0013121246014640116,0.0056407504580029705,0.008203368119113912,0.016240241599592763
1580.0,0.0044485401647693,0.026487216465089523,0.0012791330147655868,0.005486573502170132,0.008074531308879989,0.015154858374546363
1582.0,0.004319854345720047,0.027472653019378207,0.0012474501281064642,0.005339227683965015,0.00795380852728928,0.014175696701732925
1584.0,0.0041970917765384134,0.028555188360874832,0.0012170068179070972,0.0051983004591097046,0.007840913327900649,0.013289368914812855
1586.0,0.004079887177256447,0.02974442386329672,0.0011877384714806907,0.005063410465372465,0.007735587710893069,0.012484523959964668
1588.0,0.003967903129767796,0.03105134868553514,0.0011595846385452566,0.004934204715612329,0.0076376005578266595,0.01175148803996511
1590.0,0.003860827565451895,0.0324885639679705,0.0011324887137141328,0.004810356082167777,0.007546746272366948,0.011081976837716627
1592.0,0.0037583715128723296,0.03407055099608409,0.0011063976468606515,0.004691561038506665,0.007462843612020639,0.010468863536369503
1594.0,0.003660267075280531,0.03581399294428964,0.0010812616785978934,0.004577537628473306,0.0073857346983969814,0.00990599064882377
1596.0,0.0035662656115551285,0.037738162159787314,0.0010570340984176357,0.004468023637260758,0.007315284195761766,0.009388016480869874
1598.0,0.0034761360975573558,0.03986538790331703,0.0010336710232992086,0.004362774941497989,0.007251378649734729,0.008910289152131386
1600.0,0.0033896636477674926,0.04222162319209106,0.0010111311948338808,0.004261564018653076,0.0071939259799348,0.008468742679853014
1602.0,0.0033066481795564527,0.04483713408865814,0.0009893757931176087,0.004164178598382273,0.007142855122237753,0.008059810829697476
1604.0,0.003226903204599142,0.04774734068746897,0.000968368265848143,0.0040704204405571705,0.0070981158181113915,0.00768035535379124
1606.0,0.0031502547338012657,0.050993846445963255,0.0009480741712245279,0.003980104226525734,0.0070596785502677496,0.007327605940883178
1608.0,0.0030765402837305902,0.054625701688635654,0.0009284610333906935,0.0038930565517478312,0.007027534625652436,0.006999109748987997
1610.0,0.003005607973952333,0.05870095835891979,0.0009094982092923071,0.0038091150093259685,0.007001696408611527,0.00669268881583036
1612.0,0.002937315705895991,0.06328858656359092,0.0008911567659293657,0.0037281273551558482,0.00698219770897116,0.006406403975393814
1614.0,0.0028715304149528956,0.068470838983667,0.0008734093670878548,0.0036499507464736224,0.006969094331770939,0.00613852417128651
1616.0,0.00280812738844135,0.07434616592467794,0.0008562301687236625,0.0035744510464979793,0.006962464797550208,0.005887500265543037
1618.0,0.0027469896428977893,0.08103279925600411,0.0008395947222521323,0.0035015021886731982,0.006962411244441059,0.005651942607061036
1620.0,0.0026880073548734766,0.08867313238443345,0.0008234798850682888,0.0034309855947291783,0.0069690605259244524,0.005430601756394561
1622.0,0.0026310773400501685,0.09743901466938112,0.0008078637376868642,0.003362789641399094,0.0069825655210148845,0.005222351870196991
1624.0,0.0025761025760464543,0.10753803058571029,0.0007927255069486625,0.003296809171185934,0.0070031066769220916,0.005026176334697993
1626.0,0.002522991764778779,0.11922070511385725,0.000778045494791283,0.00323294504305518,0.007030893807975304,0.0048411553074516325
1628.0,0.002471658930676091,0.13278829066653847,0.000763805012128438,0.003171103719360663,0.007066168178880377,0.004666454883507631
1630.0,0.002422023051431745,0.1486002093933616,0.0007499863174236449,0.0031111968856910553,0.007109204905324769,0.0045013176487190215
1632.0,0.0023740077183171757,0.16707910859682823,0.0007365725595814518,0.0030531411006619663,0.007160315710683728,0.004345054421138534
1634.0,0.0023275408233842344,0.18870944412163304,0.0007235477248130242,0.002996857472978138,0.007219852084274403,0.0041970370129783465
1636.0,0.0022825542711517512,0.21402195740105445,0.0007108965871632904,0.0029422713633567524,0.00728820889444769,0.0040566918716867465
1638.0,0.002238983712610937,0.2435506771634233,0.000698604662414246,0.0028893121091400926,0.007365828519037102,0.003923494480345897
1640.0,0.002196768299597127,0.27774088769033234,0.000686658165103792,0.0028379127696373458,0.00745320556658804,0.003796964415629676
1642.0,0.0021558504577653755,0.316777613255777,0.0006750439684218801,0.0027880098904242536,0.007550892274722632,0.003676660976631722
1644.0,0.0021161756765769976,0.36030211795485867,0.0006637495667660297,0.0027395432849981302,0.007659504687388215,0.0035621793105080537
1646.0,0.0020776923148559103,0.4070081166216603,0.0006527630407566658,0.0026924558323369275,0.007779729731126497,0.0034531469715018267
1648.0,0.002040351420609446,0.4541931832491915,0.0006420730245294017,0.002646693289046464,0.007912333332547565,0.0033492208588761893
1650.0,0.002004106563930076,0.4975065957664568,0.0006316686751365447,0.0026022041149014593,0.008058169745721051,0.003250084486857046
1652.0,0.0019689136819037913,0.5313097036170237,0.0006215396439038585,0.0025589393106951923,0.00821819229023325,0.003155445546111796
1654.0,0.0019347309345490629,0.5499880364023721,0.0006116760496011467,0.0025168522674107628,0.008393465739490237,0.003065033721752113
1656.0,0.001901518570898641,0.5499472696180723,0.0006020684532966183,0.0024758986258153403,0.008585180646092632,0.002978598737504795
1658.0,0.0018692388044160106,0.5311873625614175,0.0005927078347753854,0.002436036145658454,0.008794669948813012,0.0028959085996733244
1660.0,0.001837855697009998,0.49730255822146024,0.0005835855704119221,0.0023972245837272565,0.009023428276468912,0.0028167480179208696
1662.0,0.0018073350509757672,0.4539072451508815,0.0005746934123949627,0.0023594255800766305,0.009273134451113337,0.0027409169828315977
1664.0,0.0017776443082488838,0.406639991507607,0.0005660234692112173,0.002322602551810723,0.009545677800701077,0.0026682294827252663
1666.0,0.0017487524564119858,0.35985143618638565,0.0005575681873015096,0.002286720593845621,0.009843189025191115,0.0025985123443717875
1668.0,0.0017206299409414714,0.3162439210111046,0.0005493203338095541,0.0022517463861310445,0.010168076526973808,0.002531604184129439
1670.0,0.0016932485832249456,0.27712364572334536,0.0005412729803496397,0.002217648106852566,0.010523069325747068,0.0024673544576560495
1672.0,0.0016665815039195106,0.2428492593215461,0.0005334194877250387,0.0021843953511755396,0.01091126794151084,0.002405622597753255
1674.0,0.0016406030512566721,0.21323564889440264,0.0005257534915340473,0.0021519590551279098,0.011336204962979927,0.0023462772311307408
1676.0,0.0016152887339320639,0.18783743953422924,0.0005182688886052315,0.00212031142425182,0.011801917443288273,0.002289195465946088
1678.0,0.0015906151582477071,0.16612050962920946,0.0005109598242077452,0.0020894258666837844,0.012313033808107565,0.002234262242908731
1680.0,0.0015665599692013445,0.14755402232435091,0.0005038206799865257,0.002059276930350312,0.012874878660333166,0.002181369743552258
1682.0,0.0015431017952418848,0.13165342352029064,0.0004968460625758028,0.002029840243990678,0.013493599770250572,0.0021304168499937694
1684.0,0.0015202201964322703,0.11799596451650256,0.0004900307928476886,0.0020010924617411135,0.014176322718255953,0.002081308651126043
1686.0,0.0014978956157814494,0.10622211829398995,0.0004833698957556952,0.001973011211035359,0.014931340201047022,0.0020339559907392732
1688.0,0.0014761093335257276,0.09603052375157785,0.00047685859073585653,0.001945575043595391,0.0157683450484057,0.0019882750535543644
1690.0,0.0014548434241567574,0.08717054303162504,0.0004704922826307447,0.0019187633893034037,0.016698718701339973,0.001944186985577515
1692.0,0.0014340807160089877,0.07943447419918417,0.0004642665531040827,0.0018925565127619573,0.017735890517043943,0.001901617545563661
1694.0,0.0014138047532336107,0.07265034543056832,0.0004581771525158807,0.0018669354723636741,0.018895788133104413,0.001860496784710523
1696.0,0.0013939997599991005,0.06667563539905964,0.00045221999223008164,0.00184188208170518,0.02019740572374736,0.001820758752000999
1698.0,0.0013746506067703855,0.061391978374768195,0.00044639113732860365,0.001817378873192165,0.02166352599723132,0.0017823412228742436
1700.0,0.001355742778529674,0.056700783729072605,0.0004406867997074263,0.001793409063693663,0.023321644189507697,0.0017451854491390213
1702.0,0.0013372623448120267,0.05251965143218313,0.000435103331531997,0.0017699565221139238,0.025205159500569736,0.0017092359282504421
1704.0,0.0013191959314380352,0.04877945639422535,0.00042963721903074446,0.0017470057387597496,0.02735492340274832,0.0016744401902560114
1706.0,0.001301530693834466,0.04542198339519765,0.000424285076606879,0.0017245417963898647,0.0298212679102045,0.0016407486008817754
1708.0,0.0012842542918415844,0.0423980098254265,0.0004190436412499651,0.0017025503428409275,0.032666684371794805,0.0016081141793766016
1710.0,0.001267354865913069,0.039665750156399206,0.00041390976722994625,0.0016810175651322025,0.03596939050178495,0.0015764924298642584
1712.0,0.0012508210146210917,0.03718959159041188,0.0004088804210574252,0.0016599301649577196,0.039828118330554725,0.0015458411850708608
1714.0,0.0012346417733852596,0.034939063806512884,0.0004039526766950356,0.0016392753354810708,0.044368589312239894,0.0015161204614008714
1716.0,0.001218806594349775,0.03288799696567078,0.00039912371100570953,0.0016190407393537915,0.04975232784407853,0.0014872923244297106
1718.0,0.0012033053273383934,0.03101383131867058,0.0003943907994245394,0.0015992144878836773,0.056188712463651834,0.0014593207639661875
1720.0,0.0011881282018215812,0.029297049154078353,0.00038975131184176696,0.0015797851212843348,0.06395147348755598,0.0014321715779146153
1722.0,0.0011732658098347415,0.02772070573024503,0.0003852027086852096,0.0015607415899418883,0.0734011687339762,0.0014058122642354814
1724.0,0.001158709089790494,0.026270040532203272,0.0003807425371911567,0.001542073236639011,0.08501532104871783,0.0013802119203657386
1726.0,0.0011444493111318218,0.024932153920891795,0.0003763684278534424,0.0015237697796804035,0.09942733408739865,0.0013553411495159317
1728.0,0.0011304780597764287,0.023695737197120974,0.00037207809104103005,0.0015058212968675033,0.11747254402251549,0.0013311719733120765
1730.0,0.0011167872243059336,0.022550846447161217,0.000367869313775027,0.0014882182102735936,0.14023112729710535,0.0013076777502960713
1732.0,0.0011033689828565587,0.021488712399515178,0.00036373995665659966,0.0014709512717736486,0.16903452197263114,0.0012848330998399278
1734.0,0.0010902157906707967,0.02050158000526989,0.00035968795093776313,0.0014540115492861472,0.20534727245423767,0.0012626138310667125
1736.0,0.0010773203682721535,0.019582572637719446,0.00035571129572750144,0.0014373904136868432,0.25032562221455523,0.0012409968764052145
1738.0,0.0010646756902274927,0.018725576753771473,0.0003518080553261171,0.0014210795263569697,0.3037001138128022,0.001219960229436301
1740.0,0.0010522749744637668,0.017925143619472134,0.0003479763566811258,0.0014050708273307326,0.36166691337362566,0.001199482886717074
1742.0,0.0010401116721080233,0.017176405313608527,0.0003442143869584008,0.0013893565240091195,0.4144915323144271,0.0011795447932945187
1744.0,0.0010281794578215243,0.016475002717231783,0.0003405203912226377,0.0013739290804090942,0.4471729832647416,0.001160126791643632
1746.0,0.0010164722206006285,0.01581702359703541,0.00033689267022154936,0.0013587812069191367,0.4471542587694448,0.0011412105737862365
1748.0,0.0010049840550187949,0.015198949215680267,0.00033332957826852106,0.001343905850533872,0.41443535046139063,0.0011227786363660376
1750.0,0.000993709252885625,0.014617608167269274,0.00032982952121875627,0.0013292961855421552,0.36157324905131033,0.0011048142384731347
1752.0,0.000982642295300344,0.014070136353024237,0.00032639095453422106,0.0013149456046445472,0.3035689251349475,0.0010873013620273336
1754.0,0.0009717778450784847,0.013553942190154752,0.00032301238143296243,0.001300847710477527,0.25015685046955444,0.0010702246745443451
1756.0,0.000961110739531821,0.013066676293375922,0.0003196923511186182,0.0012869963075231453,0.20514084203409733,0.0010535694941224407
1758.0,0.0009506359835827916,0.01260620498946698,0.00031642945708617085,0.001273385394384068,0.16879034028134826,0.0010373217564994934
1760.0,0.0009403487431957626,0.012170587125420502,0.00031322233550021397,0.0012600091564051311,0.13994908463824812,0.0010214679840416338
1762.0,0.000930244339108532,0.011758053713929179,0.00031006966364220386,0.0012468619586236281,0.1171525134657423,0.001005995256535139
1764.0,0.0009203182408484448,0.011366990029267655,0.0003069701584233607,0.0012339383390315723,0.09906917131360125,0.000990891183662683
1766.0,0.0009105660610183933,0.010995919824533908,0.00030392257496006543,0.0012212330021341361,0.08461886417342164,0.0009761438790538204
1768.0,0.0009009835498388469,0.010643491389729282,0.000300925705208766,0.001208740812789374,0.07296623810857844,0.0009617419358076168
1770.0,0.0008915665899328304,0.010308465210913022,0.0002979783766575676,0.0011964567903151673,0.06347787147792705,0.0009476744033927178
1772.0,0.0008823111913415382,0.009989703024998017,0.00029507945107183067,0.0011843761028501316,0.05567622320556923,0.0009339307658369513
1774.0,0.000873213486758955,0.009686158093747442,0.00029222782329124246,0.0011724940619559547,0.04920071697490348,0.0009205009211248217
1776.0,0.0008642697269745224,0.009396866545079922,0.00028942242007596106,0.0011608061174493375,0.04377760367818631,0.0009073751617270172
1778.0,0.000855476276513494,0.009120939650625846,0.00028666219899955444,0.0011493078524523574,0.03919748566883603,0.0008945441561913798
1780.0,0.000846829609465208,0.008857556926204813,0.00028394614738657883,0.0011379949786506857,0.03529881909685828,0.0008819989317296867
1782.0,0.0008383263054900444,0.008605959957012183,0.00028127328129274616,0.0011268633317496664,0.031955862684852024,0.0008697308577391343
1784.0,0.0008299630459963387,0.008365446862225595,0.0002786426445257432,0.001115908867118806,0.029069864180986747,0.0008577316302015955
1786.0,0.000821736610479006,0.008135367324813457,0.00027605330770485596,0.0011051276556157245,0.026562585222683503,0.0008459932569075952
1788.0,0.0008136438730120767,0.007915118121832678,0.00027350436735765205,0.001094515879581105,0.024371513356151592,0.0008345080434555308
1790.0,0.000805681798887765,0.007704139098681648,0.00027099494505206014,0.0010840698289966218,0.022446294974749197,0.0008232685799799747
1792.0,0.0007978474413950873,0.00750190953782589,0.0002685241865622674,0.0010737858977982527,0.02074605649393467,0.0008122677285659716
1794.0,0.0007901379387314248,0.007307944878606297,0.0002660912610669376,0.0010636605803377767,0.019237376048236852,0.0008014986113090795
1796.0,0.0007825505110407686,0.0071217937500135265,0.0002636953603783243,0.0010536904679856343,0.017892735147966514,0.0007909545989835487
1798.0,0.0007750824575727214,0.00694303528288644,0.0002613356982009245,0.0010438722458686886,0.016689327206310618,0.0007806293002834748
1800.0,0.0007677311539566389,0.006771276671967421,0.0002590115094183858,0.0010342026897367383,0.015608133507436176,0.0007705165516040328
